# dimensionless total [l(l+1)/2pi] C_l's
# for l=2 to 3000, i.e. number of multipoles equal to 2999
#
# -> if you prefer output in CAMB/HealPix/LensPix units/order, set 'format' to 'camb' in input file
# -> if you don't want to see such a header, set 'headers' to 'no' in input file
# -> for CMB lensing (phi), these are C_l^phi-phi for the lensing potential.
#    Remember the conversion factors:
#    C_l^dd (deflection) = l(l+1) C_l^phi-phi
#    C_l^gg (shear/convergence) = 1/4 (l(l+1))^2 C_l^phi-phi
#
# 1:l     2:TT                     3:EE                     4:TE                     5:BB                     6:phiphi                 7:TPhi                   8:Ephi               
    2       2.023144999008e-10       8.362854065510e-15       4.306220087134e-13       0.000000000000e+00       7.505697165367e-09       7.193288024815e-10      -2.618151896103e-12 
    3       1.804840278615e-10       1.335106492685e-14       5.728831627956e-13       0.000000000000e+00       4.649668238579e-09       5.007846282052e-10      -2.254545099662e-12 
    4       1.630076458507e-10       1.444204237487e-14       5.998172606330e-13       0.000000000000e+00       3.251072619214e-09       3.755000903146e-10      -1.724966314571e-12 
    5       1.501028265178e-10       1.222294401457e-14       5.594010113891e-13       0.000000000000e+00       2.435961740452e-09       2.948372071919e-10      -1.202141975648e-12 
    6       1.408159270988e-10       8.542638706837e-15       4.862012089950e-13       0.000000000000e+00       1.907572788214e-09       2.388532244772e-10      -7.449750660715e-13 
    7       1.341932724789e-10       5.135343964530e-15       4.034234654757e-13       0.000000000000e+00       1.541226345604e-09       1.979862636773e-10      -3.800560851454e-13 
    8       1.295065507924e-10       2.876058191763e-15       3.249497864443e-13       0.000000000000e+00       1.275070510268e-09       1.670443869236e-10      -1.154392810356e-13 
    9       1.263408845343e-10       1.781877154978e-15       2.585821218787e-13       0.000000000000e+00       1.074902522019e-09       1.429726704751e-10       5.355610331964e-14 
   10       1.242450460907e-10       1.412864661205e-15       2.082062600985e-13       0.000000000000e+00       9.199982775127e-10       1.238662621068e-10       1.403622115429e-13 
   11       1.229693683385e-10       1.301818777294e-15       1.748118701103e-13       0.000000000000e+00       7.847251269170e-10       1.088226114776e-10       1.630537718611e-13 
   12       1.223810230697e-10       1.187883900276e-15       1.569031000789e-13       0.000000000000e+00       6.866332303488e-10       9.616131007143e-11       1.430475139705e-13 
   13       1.222533505762e-10       1.027626628393e-15       1.513723707620e-13       0.000000000000e+00       6.059490231155e-10       8.547445561176e-11       9.834402375294e-14 
   14       1.225150018939e-10       8.845376619714e-16       1.545054748315e-13       0.000000000000e+00       5.387007020503e-10       7.658271882559e-11       4.566231350816e-14 
   15       1.230901527627e-10       8.165340201263e-16       1.626512373062e-13       0.000000000000e+00       4.820111389713e-10       6.904814306951e-11      -3.054224446189e-15 
   16       1.239065128750e-10       8.270251791748e-16       1.728257969708e-13       0.000000000000e+00       4.337431384478e-10       6.259193612045e-11      -4.020741980480e-14 
   17       1.249634398194e-10       8.787203669985e-16       1.829920525262e-13       0.000000000000e+00       3.922802310635e-10       5.693364853303e-11      -6.256232766052e-14 
   18       1.261845177856e-10       9.302863356461e-16       1.918836997660e-13       0.000000000000e+00       3.562500373464e-10       5.198618630170e-11      -7.011836047199e-14 
   19       1.275610185982e-10       9.765272285536e-16       1.992017704487e-13       0.000000000000e+00       3.250871754280e-10       4.767895140925e-11      -6.530678372867e-14 
   20       1.290483272946e-10       1.026892708328e-15       2.050215764882e-13       0.000000000000e+00       2.976136016673e-10       4.381785665984e-11      -5.260768647812e-14 
   21       1.306443691424e-10       1.102548283169e-15       2.098482126992e-13       0.000000000000e+00       2.734062086882e-10       4.037549584270e-11      -3.611359022111e-14 
   22       1.323253675921e-10       1.227467906511e-15       2.144201132939e-13       0.000000000000e+00       2.518908645098e-10       3.732172595907e-11      -2.029045808970e-14 
   23       1.340932777178e-10       1.402707951740e-15       2.193035303594e-13       0.000000000000e+00       2.327774725884e-10       3.460867109696e-11      -7.785531666092e-15 
   24       1.359343055531e-10       1.619982573461e-15       2.249729076881e-13       0.000000000000e+00       2.156309835816e-10       3.215119403989e-11      -4.998019263096e-16 
   25       1.378495474764e-10       1.872856135459e-15       2.314817015310e-13       0.000000000000e+00       2.002531745560e-10       2.992683733765e-11       1.438842884783e-15 
   26       1.398268559636e-10       2.155173249036e-15       2.386485515106e-13       0.000000000000e+00       1.863686839249e-10       2.791283585709e-11      -1.148901402221e-15 
   27       1.418600764929e-10       2.466926191859e-15       2.460651631886e-13       0.000000000000e+00       1.738133069578e-10       2.609841919388e-11      -6.724285613350e-15 
   28       1.439346337681e-10       2.809267889454e-15       2.531758500909e-13       0.000000000000e+00       1.623730787442e-10       2.446221814215e-11      -1.333635343611e-14 
   29       1.460570633939e-10       3.180181024445e-15       2.594854403485e-13       0.000000000000e+00       1.519909753506e-10       2.298855117546e-11      -1.971602303994e-14 
   30       1.482272196756e-10       3.575840100382e-15       2.644254940646e-13       0.000000000000e+00       1.425569742388e-10       2.164596182817e-11      -2.458806946012e-14 
   31       1.504339456689e-10       3.992759853633e-15       2.674208360099e-13       0.000000000000e+00       1.338804895461e-10       2.039210686418e-11      -2.672792044766e-14 
   32       1.526831497554e-10       4.433470054384e-15       2.683305668811e-13       0.000000000000e+00       1.259176208863e-10       1.922524022403e-11      -2.619093611934e-14 
   33       1.549774397033e-10       4.903054473262e-15       2.671744134043e-13       0.000000000000e+00       1.186128829047e-10       1.814989163936e-11      -2.356139746398e-14 
   34       1.573116766321e-10       5.406970399908e-15       2.640340845257e-13       0.000000000000e+00       1.118650423476e-10       1.716338379990e-11      -1.960623971762e-14 
   35       1.596878081604e-10       5.948250181802e-15       2.590911680379e-13       0.000000000000e+00       1.056399914768e-10       1.625831465932e-11      -1.510901998434e-14 
   36       1.621033188997e-10       6.529372213266e-15       2.526111072942e-13       0.000000000000e+00       9.988815567203e-11       1.541953744178e-11      -1.100366548561e-14 
   37       1.645503066561e-10       7.152567850107e-15       2.448661996965e-13       0.000000000000e+00       9.453514846402e-11       1.462877041072e-11      -8.202820494986e-15 
   38       1.670291810777e-10       7.818310326122e-15       2.358873308174e-13       0.000000000000e+00       8.956743968743e-11       1.388542469555e-11      -6.810859781746e-15 
   39       1.695381601584e-10       8.526302638366e-15       2.256324171240e-13       0.000000000000e+00       8.496958902933e-11       1.319186614800e-11      -6.652904249243e-15 
   40       1.720687516287e-10       9.275847468909e-15       2.140518019118e-13       0.000000000000e+00       8.069818558623e-11       1.254747221507e-11      -7.478405800930e-15 
   41       1.746106982447e-10       1.006614681477e-14       2.010694082709e-13       0.000000000000e+00       7.669702583925e-11       1.194930685157e-11      -8.969006778749e-15 
   42       1.771703478228e-10       1.089738315695e-14       1.865208710047e-13       0.000000000000e+00       7.295445959034e-11       1.139509986781e-11      -1.077862005402e-14 
   43       1.797571443989e-10       1.176994475892e-14       1.701938278593e-13       0.000000000000e+00       6.946060235819e-11       1.088075408380e-11      -1.249699681088e-14 
   44       1.823782603412e-10       1.268412490138e-14       1.518421221883e-13       0.000000000000e+00       6.619011901578e-11       1.039924992521e-11      -1.363283338430e-14 
   45       1.850383391365e-10       1.364017533779e-14       1.312418599140e-13       0.000000000000e+00       6.311128980832e-11       9.942817356013e-12      -1.375043956096e-14 
   46       1.877392913614e-10       1.463849639712e-14       1.083844647788e-13       0.000000000000e+00       6.021933942765e-11       9.510746859566e-12      -1.293936360692e-14 
   47       1.904799617925e-10       1.567949600569e-14       8.333780213789e-14       0.000000000000e+00       5.751097942755e-11       9.103537639003e-12      -1.147730056647e-14 
   48       1.932558302853e-10       1.676353547275e-14       5.619428936057e-14       0.000000000000e+00       5.497435638618e-11       8.720626312696e-12      -9.704410328412e-15 
   49       1.960587332912e-10       1.789092829831e-14       2.707216471490e-14       0.000000000000e+00       5.258841469174e-11       8.360303690075e-12      -8.026830550229e-15 
   50       1.988800126042e-10       1.906190884944e-14      -3.909654604693e-15       0.000000000000e+00       5.032924875755e-11       8.020320235397e-12      -6.824472896495e-15 
   51       2.017216152829e-10       2.027653113144e-14      -3.671798763772e-14       0.000000000000e+00       4.819267071331e-11       7.700089287550e-12      -6.136756566443e-15 
   52       2.045875253014e-10       2.153474047850e-14      -7.134023757102e-14       0.000000000000e+00       4.617666699446e-11       7.398938021263e-12      -5.897642989693e-15 
   53       2.074804852309e-10       2.283639873551e-14      -1.077600055867e-13       0.000000000000e+00       4.427464332155e-11       7.115421418409e-12      -6.022929002371e-15 
   54       2.104018790376e-10       2.418128164790e-14      -1.459570648412e-13       0.000000000000e+00       4.247511640014e-11       6.847271452667e-12      -6.409255456633e-15 
   55       2.133524261619e-10       2.556907786161e-14      -1.859175695404e-13       0.000000000000e+00       4.076521867755e-11       6.592030841493e-12      -6.949775093308e-15 
   56       2.163347341669e-10       2.699939161148e-14      -2.276677116872e-13       0.000000000000e+00       3.914293846570e-11       6.349255079540e-12      -7.587985271834e-15 
   57       2.193511749341e-10       2.847173612885e-14      -2.712483798153e-13       0.000000000000e+00       3.760738051592e-11       6.118768430559e-12      -8.275531947849e-15 
   58       2.224030452105e-10       2.998552959812e-14      -3.167060210750e-13       0.000000000000e+00       3.615506310804e-11       5.900003669352e-12      -8.956387211474e-15 
   59       2.254904810149e-10       3.154009260931e-14      -3.640930139825e-13       0.000000000000e+00       3.477975831114e-11       5.691977937887e-12      -9.566506959034e-15 
   60       2.286123720446e-10       3.313464561067e-14      -4.134680411694e-13       0.000000000000e+00       3.347233224414e-11       5.493268601411e-12      -1.003348856479e-14 
   61       2.317672699813e-10       3.476837004381e-14      -4.648811935272e-13       0.000000000000e+00       3.222328173494e-11       5.302429472408e-12      -1.029649144187e-14 
   62       2.349565452927e-10       3.644061354720e-14      -5.183245322639e-13       0.000000000000e+00       3.103137102850e-11       5.119403276519e-12      -1.037199823783e-14 
   63       2.381817903461e-10       3.815072650205e-14      -5.737710409190e-13       0.000000000000e+00       2.989665904283e-11       4.944384828865e-12      -1.030227415383e-14 
   64       2.414438350477e-10       3.989800189785e-14      -6.311888052592e-13       0.000000000000e+00       2.881790132112e-11       4.777398672817e-12      -1.013670122104e-14 
   65       2.447426927843e-10       4.168167480559e-14      -6.905409015660e-13       0.000000000000e+00       2.779247584715e-11       4.618288908654e-12      -9.932078898542e-15 
   66       2.480775063658e-10       4.350092185099e-14      -7.517852849242e-13       0.000000000000e+00       2.681630886059e-11       4.466709022213e-12      -9.752924671151e-15 
   67       2.514464939665e-10       4.535486068765e-14      -8.148746775094e-13       0.000000000000e+00       2.588380067232e-11       4.322111713549e-12      -9.671774647349e-15 
   68       2.548477978939e-10       4.724246028727e-14      -8.797585328520e-13       0.000000000000e+00       2.498932004513e-11       4.183906292744e-12      -9.750971332395e-15 
   69       2.582823514384e-10       4.916225187945e-14      -9.463896405157e-13       0.000000000000e+00       2.413220477901e-11       4.051990637603e-12      -9.983069793214e-15 
   70       2.617514984792e-10       5.111255822520e-14      -1.014718665166e-12       0.000000000000e+00       2.331264576309e-11       3.926309247602e-12      -1.033884073947e-14 
   71       2.652561116438e-10       5.309157486026e-14      -1.084692131435e-12       0.000000000000e+00       2.253017460512e-11       3.806689433593e-12      -1.078454515641e-14 
   72       2.687965613400e-10       5.509736728741e-14      -1.156252365311e-12       0.000000000000e+00       2.178362956354e-11       3.692835432074e-12      -1.128176142895e-14 
   73       2.723726847883e-10       5.712786816879e-14      -1.229337435510e-12       0.000000000000e+00       2.107112147964e-11       3.584322519438e-12      -1.178721246579e-14 
   74       2.759837550538e-10       5.918087451820e-14      -1.303881094865e-12       0.000000000000e+00       2.038999970963e-11       3.480591126242e-12      -1.225259282351e-14 
   75       2.796284500785e-10       6.125404489341e-14      -1.379812721709e-12       0.000000000000e+00       1.973681805673e-11       3.380940951460e-12      -1.262439583066e-14 
   76       2.833054832644e-10       6.334507086001e-14      -1.457065769908e-12       0.000000000000e+00       1.910818921358e-11       3.284702998115e-12      -1.285624028679e-14 
   77       2.870156964309e-10       6.545223368717e-14      -1.535605027523e-12       0.000000000000e+00       1.850360327994e-11       3.191804908770e-12      -1.294882780073e-14 
   78       2.907602940295e-10       6.757394453870e-14      -1.615404245496e-12       0.000000000000e+00       1.792306370873e-11       3.102298507457e-12      -1.291699163778e-14 
   79       2.945401983306e-10       6.970857996084e-14      -1.696438183951e-12       0.000000000000e+00       1.736622880013e-11       3.016188822842e-12      -1.277792563943e-14 
   80       2.983560320215e-10       7.185448264819e-14      -1.778682728053e-12       0.000000000000e+00       1.683239585333e-11       2.933431850915e-12      -1.255126766142e-14 
   81       3.022081008043e-10       7.400996220958e-14      -1.862115003869e-12       0.000000000000e+00       1.632048531827e-11       2.853932317668e-12      -1.225918301170e-14 
   82       3.060963759938e-10       7.617329593395e-14      -1.946713494224e-12       0.000000000000e+00       1.582902494732e-11       2.777541441776e-12      -1.192644788846e-14 
   83       3.100204771150e-10       7.834272955624e-14      -2.032458154562e-12       0.000000000000e+00       1.535613394707e-11       2.704054697279e-12      -1.158053281813e-14 
   84       3.139799148847e-10       8.051642602363e-14      -2.119319455219e-12       0.000000000000e+00       1.489997920580e-11       2.633262428577e-12      -1.124630878531e-14 
   85       3.179749045564e-10       8.269230035760e-14      -2.207223167282e-12       0.000000000000e+00       1.446026559197e-11       2.565116237157e-12      -1.092897449737e-14 
   86       3.220056561313e-10       8.486815869245e-14      -2.296079924249e-12       0.000000000000e+00       1.403696480733e-11       2.499586204497e-12      -1.062843864196e-14 
   87       3.260721131297e-10       8.704174773437e-14      -2.385795707355e-12       0.000000000000e+00       1.362985748001e-11       2.436609163075e-12      -1.034443871464e-14 
   88       3.301739395649e-10       8.921075465346e-14      -2.476271775321e-12       0.000000000000e+00       1.323852525025e-11       2.376087347315e-12      -1.007653408194e-14 
   89       3.343105069169e-10       9.137280697559e-14      -2.567404594102e-12       0.000000000000e+00       1.286234285621e-11       2.317887044555e-12      -9.824099044463e-15 
   90       3.384808811071e-10       9.352547247441e-14      -2.659085766635e-12       0.000000000000e+00       1.250047021969e-11       2.261837245992e-12      -9.586315899951e-15 
   91       3.426838094717e-10       9.566625906326e-14      -2.751201962587e-12       0.000000000000e+00       1.215184453198e-11       2.207728297643e-12      -9.362168006382e-15 
   92       3.469177077362e-10       9.779261468713e-14      -2.843634848103e-12       0.000000000000e+00       1.181517233953e-11       2.155310551302e-12      -9.150432845044e-15 
   93       3.511810651902e-10       9.990201613788e-14      -2.936270400022e-12       0.000000000000e+00       1.148923578218e-11       2.104353482227e-12      -8.949945142848e-15 
   94       3.554737582151e-10       1.019922510148e-13      -3.029028603553e-12       0.000000000000e+00       1.117388118368e-11       2.054836143196e-12      -8.760446574916e-15 
   95       3.597959111464e-10       1.040611781687e-13      -3.121838112027e-12       0.000000000000e+00       1.086916520444e-11       2.006782993791e-12      -8.581851626299e-15 
   96       3.641474884878e-10       1.061066436541e-13      -3.214627318188e-12       0.000000000000e+00       1.057505038356e-11       1.960205473855e-12      -8.413985732975e-15 
   97       3.685282876253e-10       1.081264818430e-13      -3.307324412760e-12       0.000000000000e+00       1.029140153695e-11       1.915101484463e-12      -8.256582051994e-15 
   98       3.729379315419e-10       1.101185165361e-13      -3.399857443017e-12       0.000000000000e+00       1.001798215538e-11       1.871454868893e-12      -8.109278231619e-15 
   99       3.773758615325e-10       1.120805620764e-13      -3.492154371349e-12       0.000000000000e+00       9.754450802585e-12       1.829234893604e-12      -7.971613181464e-15 
  100       3.818413299182e-10       1.140104244615e-13      -3.584143133828e-12       0.000000000000e+00       9.500357513368e-12       1.788395729204e-12      -7.843023842634e-15 
  101       3.863333927609e-10       1.159059024558e-13      -3.675751698776e-12       0.000000000000e+00       9.255140191665e-12       1.748875931421e-12      -7.722841957871e-15 
  102       3.908509025781e-10       1.177647887037e-13      -3.766908125334e-12       0.000000000000e+00       9.018121008649e-12       1.710597922083e-12      -7.610290841688e-15 
  103       3.953925010574e-10       1.195848708415e-13      -3.857540622027e-12       0.000000000000e+00       8.788502800816e-12       1.673467470082e-12      -7.504482150512e-15 
  104       3.999568523947e-10       1.213639761296e-13      -3.947575185712e-12       0.000000000000e+00       8.565549355580e-12       1.637395656676e-12      -7.404544456162e-15 
  105       4.045433948989e-10       1.231001098168e-13      -4.036928029030e-12       0.000000000000e+00       8.349161762269e-12       1.602369268550e-12      -7.310035703436e-15 
  106       4.091516778087e-10       1.247913376281e-13      -4.125512234435e-12       0.000000000000e+00       8.139373565204e-12       1.568388990480e-12      -7.220580707525e-15 
  107       4.137811251502e-10       1.264357454861e-13      -4.213240114066e-12       0.000000000000e+00       7.936172266580e-12       1.535447501496e-12      -7.135742566151e-15 
