# dimensionless total lensed [l(l+1)/2pi] C_l's
# for l=2 to 2500, i.e. number of multipoles equal to 2499
#
# -> if you prefer output in CAMB/HealPix/LensPix units/order, set 'format' to 'camb' in input file
# -> if you don't want to see such a header, set 'headers' to 'no' in input file
# -> for CMB lensing (phi), these are C_l^phi-phi for the lensing potential.
#    Remember the conversion factors:
#    C_l^dd (deflection) = l(l+1) C_l^phi-phi
#    C_l^gg (shear/convergence) = 1/4 (l(l+1))^2 C_l^phi-phi
#
# 1:l     2:TT                     3:EE                     4:TE                     5:BB                     6:phiphi                 7:TPhi                   8:Ephi               
    2       1.495051227000e-10       7.308367370656e-15       4.815629289994e-13       2.389018922573e-19       8.629684192676e-09       4.852350221643e-10      -2.515759502241e-12 
    3       1.409080331477e-10       1.238747891358e-14       6.069035062693e-13       4.780360014646e-19       5.411992642396e-09       3.468026583838e-10      -2.211454345707e-12 
    4       1.324408762131e-10       1.446576455194e-14       6.278236810020e-13       7.972345298616e-19       3.777106112696e-09       2.638671575044e-10      -1.764129241858e-12 
    5       1.257342316792e-10       1.338056512545e-14       5.879819569623e-13       1.196784657584e-18       2.822370939260e-09       2.092937745984e-10      -1.309600406641e-12 
    6       1.207927527417e-10       1.032628189854e-14       5.174283962737e-13       1.677026793051e-18       2.205521521401e-09       1.708714047492e-10      -8.949578183598e-13 
    7       1.173218009639e-10       6.845425410961e-15       4.365635357537e-13       2.238343290272e-18       1.778490300199e-09       1.425099888261e-10      -5.445156543350e-13 
    8       1.149988335808e-10       4.046463941581e-15       3.576919602939e-13       2.881145946508e-18       1.468562825942e-09       1.208411998862e-10      -2.690613718905e-13 
    9       1.135804914230e-10       2.340626760941e-15       2.880867470046e-13       3.605862774610e-18       1.236009139858e-09       1.038424281987e-10      -7.020952182431e-14 
   10       1.128528832464e-10       1.576298112149e-15       2.318022556770e-13       4.412924571531e-18       1.056762295221e-09       9.025662696017e-11       5.737549860140e-14 
   11       1.126745699410e-10       1.351246631691e-15       1.905722941477e-13       5.302751810543e-18       8.887915021701e-10       7.947272932820e-11       1.232792241528e-13 
   12       1.129401388823e-10       1.294632678993e-15       1.640704121135e-13       6.275742369221e-18       7.766155397665e-10       7.025936326588e-11       1.421479264898e-13 
   13       1.135262382529e-10       1.208133554954e-15       1.505283438448e-13       7.332260569038e-18       6.845328741069e-10       6.272355643380e-11       1.277443632467e-13 
   14       1.143347556499e-10       1.063434445365e-15       1.473950374538e-13       8.472627946848e-18       6.079179570277e-10       5.618805322568e-11       9.282942003085e-14 
   15       1.153726151046e-10       9.203733155798e-16       1.516570886935e-13       9.697116105901e-18       5.434290108856e-10       5.072721638384e-11       4.963953992301e-14 
   16       1.166034970986e-10       8.404526819301e-16       1.602701962736e-13       1.100594190730e-17       4.885987299812e-10       4.610158633513e-11       7.281512017382e-15 
   17       1.179395550485e-10       8.411429695739e-16       1.707571298554e-13       1.239926516553e-17       4.415632987162e-10       4.210941202013e-11      -2.788548816854e-14 
   18       1.193886883909e-10       8.949829254956e-16       1.812487072185e-13       1.387718768178e-17       4.007376526524e-10       3.856045820607e-11      -5.230378922836e-14 
   19       1.209588021759e-10       9.692834409261e-16       1.907647699216e-13       1.543976215040e-17       3.654765809717e-10       3.542651783597e-11      -6.508944752650e-14 
   20       1.225917137074e-10       1.030537699224e-15       1.985626309838e-13       1.708698390361e-17       3.344193069019e-10       3.265804808813e-11      -6.707225885957e-14 
   21       1.242998077750e-10       1.081644570736e-15       2.047211069446e-13       1.881881612526e-17       3.070783214669e-10       3.021127909786e-11      -6.039872729605e-14 
   22       1.260840533400e-10       1.140689840547e-15       2.096918371200e-13       2.063517998730e-17       2.828004784371e-10       2.800398134597e-11      -4.842649458653e-14 
   23       1.279331543128e-10       1.227072776149e-15       2.139227704431e-13       2.253598462246e-17       2.612522461474e-10       2.600371007780e-11      -3.409567129189e-14 
   24       1.298140768090e-10       1.359409369386e-15       2.179345356510e-13       2.452111721415e-17       2.419355590978e-10       2.417552177407e-11      -2.049360057633e-14 
   25       1.317441380513e-10       1.538128237844e-15       2.222208755214e-13       2.659047794352e-17       2.246234998931e-10       2.252952428543e-11      -9.461346562661e-15 
   26       1.337364976907e-10       1.756230925943e-15       2.272261194703e-13       2.874396786294e-17       2.090030899017e-10       2.106948503014e-11      -2.340230764988e-15 
   27       1.357722296148e-10       2.007295065074e-15       2.329722756100e-13       3.098151952128e-17       1.948870660947e-10       1.976266817205e-11       6.612356636817e-16 
   28       1.378153497427e-10       2.284898777761e-15       2.392776862762e-13       3.330308922284e-17       1.820321198387e-10       1.855801744750e-11      -8.759395536681e-17 
   29       1.398754952401e-10       2.588556376714e-15       2.458384156441e-13       3.570869231098e-17       1.703726780832e-10       1.745076355001e-11      -3.785819452759e-15 
   30       1.419668829821e-10       2.919513099397e-15       2.522178056340e-13       3.819838344348e-17       1.597836267492e-10       1.644172822432e-11      -9.206910450072e-15 
   31       1.440933502919e-10       3.278394612231e-15       2.579010812589e-13       4.077225650308e-17       1.500490720679e-10       1.552246931599e-11      -1.491004600945e-14 
   32       1.462578023643e-10       3.663088633499e-15       2.625163321835e-13       4.343046817468e-17       1.411188217345e-10       1.468402318580e-11      -2.001587287055e-14 
   33       1.484535751692e-10       4.069968970762e-15       2.656855966938e-13       4.617323161506e-17       1.329298050840e-10       1.390952621862e-11      -2.369405276144e-14 
   34       1.506678462461e-10       4.495884830457e-15       2.670418852313e-13       4.900081020977e-17       1.253675165271e-10       1.317812483689e-11      -2.518319547836e-14 
   35       1.529073249517e-10       4.943424362264e-15       2.665030564869e-13       5.191349916501e-17       1.183933092402e-10       1.249010165737e-11      -2.459285468338e-14 
   36       1.551798970576e-10       5.417558653732e-15       2.640956476951e-13       5.491164538070e-17       1.119512885697e-10       1.184966442261e-11      -2.239316391765e-14 
   37       1.574880372159e-10       5.923450004418e-15       2.598905160409e-13       5.799563243668e-17       1.059576775239e-10       1.125812481038e-11      -1.915798449972e-14 
   38       1.598321077866e-10       6.463425247848e-15       2.540189917101e-13       6.116579700469e-17       1.003970259615e-10       1.071433854898e-11      -1.536639155296e-14 
   39       1.622069163151e-10       7.039048655842e-15       2.466676695360e-13       6.442249012968e-17       9.525172163117e-11       1.021386064290e-11      -1.155077293688e-14 
   40       1.645999400608e-10       7.651933780318e-15       2.380784830516e-13       6.776610268676e-17       9.047272356483e-11       9.748418335414e-12      -8.359215171663e-15 
   41       1.669970402058e-10       8.303446181232e-15       2.284802355066e-13       7.119702693501e-17       8.599665546477e-11       9.308564068393e-12      -6.393425617458e-15 
   42       1.694035166607e-10       8.993692832016e-15       2.178481794418e-13       7.471552037434e-17       8.181036911935e-11       8.893441180727e-12      -5.641836906956e-15 
   43       1.718287345436e-10       9.722205405989e-15       2.060719182745e-13       7.832180159700e-17       7.790278380037e-11       8.503659444576e-12      -5.874005997968e-15 
   44       1.742800534113e-10       1.048819099402e-14       1.930190341219e-13       8.201608689421e-17       7.424551215010e-11       8.138483865887e-12      -6.789526079334e-15 
   45       1.767624131891e-10       1.129081687677e-14       1.785448539928e-13       8.579855311327e-17       7.080300634855e-11       7.796299823753e-12      -8.058651787802e-15 
   46       1.792775490469e-10       1.213021235170e-14       1.625288560580e-13       8.966921401468e-17       6.756986083110e-11       7.476445724511e-12      -9.469260745540e-15 
   47       1.818241052954e-10       1.300673321695e-14       1.448465300029e-13       9.362800620880e-17       6.454231773666e-11       7.177732321341e-12      -1.081617414359e-14 
   48       1.843975136831e-10       1.392068154682e-14       1.253581524094e-13       9.767482016975e-17       6.170701531722e-11       6.897830332805e-12      -1.185799521882e-14 
   49       1.869897277167e-10       1.487230370091e-14       1.039078991015e-13       1.018094976853e-16       5.904027371276e-11       6.633188688511e-12      -1.231520866580e-14 
   50       1.895924908021e-10       1.586179783412e-14       8.036692537981e-14       1.060318258286e-16       5.651522859461e-11       6.380064784063e-12      -1.195872610129e-14 
   51       1.922088028514e-10       1.688934344874e-14       5.477845176055e-14       1.103415228618e-16       5.412717186375e-11       6.138134597581e-12      -1.090826637089e-14 
   52       1.948441069129e-10       1.795507642264e-14       2.725052575430e-14       1.147382440976e-16       5.187385481672e-11       5.907721181118e-12      -9.411681920603e-15 
   53       1.975029303581e-10       1.905907870241e-14      -2.083350624366e-15       1.192215823944e-16       4.974790472742e-11       5.688739571121e-12      -7.763891310911e-15 
   54       2.001887854995e-10       2.020137675961e-14      -3.306303943474e-14       1.237910654419e-16       4.773647993342e-11       5.480667363946e-12      -6.309234913434e-15 
   55       2.029041747847e-10       2.138195868277e-14      -6.554072182386e-14       1.284462079582e-16       4.582518904956e-11       5.282780295078e-12      -5.360881036503e-15 
   56       2.056508355652e-10       2.260083396231e-14      -9.951180196671e-14       1.331866896820e-16       4.401177890923e-11       5.094994917787e-12      -4.930202124122e-15 
   57       2.084293820572e-10       2.385798585349e-14      -1.350144531213e-13       1.380122168441e-16       4.229524285822e-11       4.917183724636e-12      -4.934295982822e-15 
   58       2.112391128591e-10       2.515335324203e-14      -1.720927043535e-13       1.429224705687e-16       4.067167966028e-11       4.748909800853e-12      -5.272188142018e-15 
   59       2.140779156437e-10       2.648682982639e-14      -2.107968228721e-13       1.479171062996e-16       3.913411471828e-11       4.589407724657e-12      -5.823955749227e-15 
   60       2.169421718494e-10       2.785826330016e-14      -2.511836963636e-13       1.529957532249e-16       3.767232129542e-11       4.437564467591e-12      -6.449851465296e-15 
   61       2.198282671866e-10       2.926739770761e-14      -2.933051292368e-13       1.581580924907e-16       3.627566086907e-11       4.292221409765e-12      -7.019147736440e-15 
   62       2.227377349653e-10       3.071368724055e-14      -3.371687965622e-13       1.634041136526e-16       3.494275365379e-11       4.153202811784e-12      -7.506217328609e-15 
   63       2.256731033705e-10       3.219643900500e-14      -3.827691643989e-13       1.687339150297e-16       3.367367136340e-11       4.020485352280e-12      -7.914562584711e-15 
   64       2.286363480440e-10       3.371486359100e-14      -4.300988013825e-13       1.741476318850e-16       3.246702828045e-11       3.893888649341e-12      -8.249063675014e-15 
   65       2.316288477272e-10       3.526807245184e-14      -4.791483775769e-13       1.796454383500e-16       3.131989827219e-11       3.773066349575e-12      -8.516045497446e-15 
   66       2.346513399048e-10       3.685507528334e-14      -5.299066633276e-13       1.852275493508e-16       3.022773180653e-11       3.657497217170e-12      -8.723344577903e-15 
   67       2.377038764476e-10       3.847477740313e-14      -5.823605281134e-13       1.908942225332e-16       2.918427296802e-11       3.546476222961e-12      -8.880375970552e-15 
   68       2.407862796621e-10       4.012609857960e-14      -6.364949922079e-13       1.966457483681e-16       2.818323045125e-11       3.439312408792e-12      -8.997213667421e-15 
   69       2.438997168955e-10       4.180836333687e-14      -6.922933963796e-13       2.024824138344e-16       2.722386920969e-11       3.335988955500e-12      -9.081465911089e-15 
   70       2.470453667682e-10       4.352098539128e-14      -7.497372646740e-13       2.084045348021e-16       2.630640795178e-11       3.236621468611e-12      -9.140884011604e-15 
   71       2.502239160054e-10       4.526335367580e-14      -8.088062548478e-13       2.144124687962e-16       2.543032797049e-11       3.141259479301e-12      -9.184333740203e-15 
   72       2.534355278780e-10       4.703483282541e-14      -8.694781585716e-13       2.205066166193e-16       2.459433501802e-11       3.049882821838e-12      -9.221836999668e-15 
   73       2.566798106443e-10       4.883476366255e-14      -9.317289016332e-13       2.266874239752e-16       2.379632118057e-11       2.962398011008e-12      -9.264613494691e-15 
   74       2.599557859910e-10       5.066246368246e-14      -9.955325441410e-13       2.329553830917e-16       2.303332675304e-11       2.878634619554e-12      -9.325122402240e-15 
   75       2.632618574746e-10       5.251722753859e-14      -1.060861280727e-12       2.393110343440e-16       2.230150211377e-11       2.798341655608e-12      -9.417104041920e-15 
   76       2.665964563133e-10       5.439816717021e-14      -1.127682447749e-12       2.457548690041e-16       2.159706341190e-11       2.721254068552e-12      -9.551618205619e-15 
   77       2.699601844781e-10       5.630369745495e-14      -1.195948914389e-12       2.522870134277e-16       2.091944510374e-11       2.647314275606e-12      -9.724232997165e-15 
   78       2.733540068847e-10       5.823195720863e-14      -1.265606931551e-12       2.589074899587e-16       2.026865570160e-11       2.576484637893e-12      -9.925564668537e-15 
   79       2.767785913295e-10       6.018095846467e-14      -1.336598909237e-12       2.656163102960e-16       1.964431750179e-11       2.508678766553e-12      -1.014503394165e-14 
   80       2.802342908208e-10       6.214858367122e-14      -1.408863355375e-12       2.724134750890e-16       1.904564883832e-11       2.443759338221e-12      -1.037082558698e-14 
   81       2.837211259096e-10       6.413258288827e-14      -1.482334814648e-12       2.792989735335e-16       1.847144633653e-11       2.381535910499e-12      -1.058984800215e-14 
   82       2.872387670204e-10       6.613057098481e-14      -1.556943807323e-12       2.862727829673e-16       1.792006716677e-11       2.321762737429e-12      -1.078769279062e-14 
   83       2.907865167827e-10       6.814002483593e-14      -1.632616768081e-12       2.933348684658e-16       1.738941129808e-11       2.264136584970e-12      -1.094859434021e-14 
   84       2.943636798953e-10       7.015853283941e-14      -1.709284493335e-12       3.004851977582e-16       1.687743192459e-11       2.208368185591e-12      -1.105869748809e-14 
   85       2.979707818742e-10       7.218459713213e-14      -1.786909226190e-12       3.077237897018e-16       1.638380284187e-11       2.154414997610e-12      -1.111657146991e-14 
   86       3.016085208922e-10       7.421695984357e-14      -1.865461970322e-12       3.150506731396e-16       1.590849623442e-11       2.102283206615e-12      -1.112437295414e-14 
   87       3.052773872162e-10       7.625436401731e-14      -1.944914461328e-12       3.224658721501e-16       1.545127034069e-11       2.051956584185e-12      -1.108470788044e-14 
   88       3.089776520525e-10       7.829555504879e-14      -2.025239248559e-12       3.299694059001e-16       1.501166058359e-11       2.003395541003e-12      -1.100064663646e-14 
   89       3.127093563903e-10       8.033928212311e-14      -2.106409776949e-12       3.375612884981e-16       1.458897070101e-11       1.956536179961e-12      -1.087573923448e-14 
   90       3.164722998461e-10       8.238429965284e-14      -2.188400468844e-12       3.452415288471e-16       1.418226387633e-11       1.911289349263e-12      -1.071403048814e-14 
   91       3.202660295075e-10       8.442936871578e-14      -2.271186805828e-12       3.530101304982e-16       1.379035386895e-11       1.867539695538e-12      -1.052007518915e-14 
   92       3.240898287778e-10       8.647325849277e-14      -2.354745410558e-12       3.608670915035e-16       1.341179614481e-11       1.825144716938e-12      -1.029895328401e-14 
   93       3.279429734013e-10       8.851463762165e-14      -2.439045984526e-12       3.688125213643e-16       1.304523063419e-11       1.783970558614e-12      -1.005580407972e-14 
   94       3.318255678184e-10       9.055172644443e-14      -2.524025556593e-12       3.768470123143e-16       1.269048823917e-11       1.744007614167e-12      -9.794315760019e-15 
   95       3.357378145576e-10       9.258259487306e-14      -2.609610494703e-12       3.849713238655e-16       1.234763512053e-11       1.705270640852e-12      -9.518035695420e-15 
   96       3.396797508741e-10       9.460526774066e-14      -2.695724275295e-12       3.931862721301e-16       1.201663191013e-11       1.667763129772e-12      -9.230839631896e-15 
   97       3.436512412616e-10       9.661772472822e-14      -2.782287453336e-12       4.014927312810e-16       1.169732966819e-11       1.631476863347e-12      -8.936940265359e-15 
   98       3.476519699636e-10       9.861790029130e-14      -2.869217632357e-12       4.098916350119e-16       1.138946584050e-11       1.596391472774e-12      -8.640895816163e-15 
   99       3.516814334854e-10       1.006036835867e-13      -2.956429434492e-12       4.183839779982e-16       1.109266021569e-11       1.562473995490e-12      -8.347618603603e-15 
  100       3.557389331059e-10       1.025729183991e-13      -3.043834470513e-12       4.269708173572e-16       1.080641088247e-11       1.529678432634e-12      -8.062383620413e-15 
  101       3.598235673888e-10       1.045234030679e-13      -3.131341309871e-12       4.356532741090e-16       1.053009018688e-11       1.497945306513e-12      -7.790837107263e-15 
  102       3.639342246948e-10       1.064528904137e-13      -3.218855450727e-12       4.444325346363e-16       1.026294068955e-11       1.467201218059e-12      -7.539005127264e-15 
  103       3.680695756931e-10       1.083590876652e-13      -3.306279289993e-12       4.533098521459e-16       1.000407112291e-11       1.437358404298e-12      -7.313302140458e-15 
  104       3.722283563852e-10       1.102397650467e-13      -3.393518639129e-12       4.622864165744e-16       9.752658443553e-12       1.408334754448e-12      -7.119052823960e-15 
  105       3.764102768484e-10       1.120930984057e-13      -3.480503338503e-12       4.713629411487e-16       9.508593781460e-12       1.380117890775e-12      -6.955811651919e-15 
  106       3.806152218613e-10       1.139173729480e-13      -3.567169384836e-12       4.805400224389e-16       9.271916618457e-12       1.352708959410e-12      -6.821424101007e-15 
  107       3.848429671101e-10       1.157108798172e-13      -3.653452675569e-12       4.898182669396e-16       9.042614728668e-12       1.326102729622e-12      -6.713449275361e-15 
