# dimensionless total lensed [l(l+1)/2pi] C_l's
# for l=2 to 2500, i.e. number of multipoles equal to 2499
#
# -> if you prefer output in CAMB/HealPix/LensPix units/order, set 'format' to 'camb' in input file
# -> if you don't want to see such a header, set 'headers' to 'no' in input file
# -> for CMB lensing (phi), these are C_l^phi-phi for the lensing potential.
#    Remember the conversion factors:
#    C_l^dd (deflection) = l(l+1) C_l^phi-phi
#    C_l^gg (shear/convergence) = 1/4 (l(l+1))^2 C_l^phi-phi
#
# 1:l     2:TT                     3:EE                     4:TE                     5:BB                     6:phiphi                 7:TPhi                   8:Ephi               
    2       1.495051270547e-10       7.308382352263e-15       4.815629288759e-13       2.538843785155e-19       8.604096085089e-09       4.847081455605e-10      -2.515700893605e-12 
    3       1.409080410354e-10       1.238750887844e-14       6.069035061213e-13       5.080013988418e-19       5.392539468321e-09       3.463613763733e-10      -2.211412106922e-12 
    4       1.324408896198e-10       1.446581449503e-14       6.278236806967e-13       8.471777793637e-19       3.762249373582e-09       2.634950579406e-10      -1.764105187916e-12 
    5       1.257342535717e-10       1.338064004193e-14       5.879819564197e-13       1.271701202039e-18       2.810775959784e-09       2.089751959107e-10      -1.309589486558e-12 
    6       1.207927827726e-10       1.032638678395e-14       5.174283952216e-13       1.781912649327e-18       2.196344682418e-09       1.705953707666e-10      -8.949557157812e-13 
    7       1.173218391338e-10       6.845565261551e-15       4.365635338175e-13       2.378195089485e-18       1.771188588179e-09       1.422686240159e-10      -5.445190897926e-13 
    8       1.149988821632e-10       4.046643753955e-15       3.576919570110e-13       3.060960939112e-18       1.462731062473e-09       1.206285568211e-10      -2.690679377632e-13 
    9       1.135805572209e-10       2.340851531945e-15       2.880867422423e-13       3.830638798810e-18       1.231319329811e-09       1.036536300899e-10      -7.021750295946e-14 
   10       1.128529612985e-10       1.576572838397e-15       2.318022489288e-13       4.687659985131e-18       1.052959350359e-09       9.008774553555e-11       5.736726168738e-14 
   11       1.126746625478e-10       1.351576309686e-15       1.905722845564e-13       5.632445387968e-18       8.851979256448e-10       7.931770273860e-11       1.232731228018e-13 
   12       1.129402439295e-10       1.295022303798e-15       1.640703990442e-13       6.665393167066e-18       7.734485940289e-10       7.011802945454e-11       1.421428171926e-13 
   13       1.135263727142e-10       1.208588122407e-15       1.505283261869e-13       7.786867764972e-18       6.817224235179e-10       6.259422150338e-11       1.277400582640e-13 
   14       1.143349034577e-10       1.063958947498e-15       1.473950169606e-13       8.997190657974e-18       6.054087070426e-10       5.606947379669e-11       9.282560143544e-14 
   15       1.153727880730e-10       9.209727432850e-16       1.516570622062e-13       1.029663319373e-17       5.411771281186e-10       5.061818749137e-11       4.963609912721e-14 
   16       1.166036788888e-10       8.411320234906e-16       1.602701648632e-13       1.168541177723e-17       4.865684113524e-10       4.600124991225e-11       7.278615162676e-15 
   17       1.179397833822e-10       8.419072080029e-16       1.707570903834e-13       1.316368556920e-17       4.397255151740e-10       4.201681829508e-11      -2.788845549512e-14 
   18       1.193889500451e-10       8.958370430465e-16       1.812486614163e-13       1.473155552649e-17       3.990685127076e-10       3.847468325656e-11      -5.230642243841e-14 
   19       1.209590815475e-10       9.702324161997e-16       1.907647196706e-13       1.638907334901e-17       3.639547761103e-10       3.534669970054e-11      -6.509141242885e-14 
   20       1.225920218086e-10       1.031586505119e-15       1.985625754146e-13       1.813623320566e-17       3.330284257581e-10       3.258353142970e-11      -6.707384514108e-14 
   21       1.243001527084e-10       1.082798174012e-15       2.047210448594e-13       1.997299704264e-17       3.058036228780e-10       3.014152011475e-11      -6.040016427504e-14 
   22       1.260844310447e-10       1.141953201134e-15       2.096917680050e-13       2.189928469586e-17       2.816296670343e-10       2.793859607033e-11      -4.842773189014e-14 
   23       1.279335622582e-10       1.228450846638e-15       2.139226950126e-13       2.391500397134e-17       2.601742634080e-10       2.594237779727e-11      -3.409669461787e-14 
   24       1.298145180928e-10       1.360907094856e-15       2.179344559692e-13       2.602004071122e-17       2.409412954970e-10       2.411798719994e-11      -2.049452330659e-14 
   25       1.317446150994e-10       1.539750557682e-15       2.222207937520e-13       2.821429386190e-17       2.237047162628e-10       2.247549592824e-11      -9.462268985581e-15 
   26       1.337370104727e-10       1.757982773775e-15       2.272260372255e-13       3.049766331721e-17       2.081527839724e-10       2.101864817904e-11      -2.341192584365e-15 
   27       1.357727784113e-10       2.009181365229e-15       2.329721932159e-13       3.287008064854e-17       1.940989363858e-10       1.971479110389e-11       6.602174895527e-16 
   28       1.378159356030e-10       2.286924443977e-15       2.392776029637e-13       3.533150134628e-17       1.813008013599e-10       1.851299024963e-11      -8.867159768553e-17 
   29       1.398761173754e-10       2.590726313636e-15       2.458383325054e-13       3.788194021396e-17       1.696930544307e-10       1.740845075826e-11      -3.786945428956e-15 
   30       1.419675374948e-10       2.921832202844e-15       2.522177270597e-13       4.052145159660e-17       1.591511029256e-10       1.640193098721e-11      -9.208056527957e-15 
   31       1.440940313597e-10       3.280867769048e-15       2.579010146308e-13       4.325012929433e-17       1.494599598891e-10       1.548494625061e-11      -1.491116831708e-14 
   32       1.462585101697e-10       3.665720721709e-15       2.625162835804e-13       4.606813019326e-17       1.405696338820e-10       1.464855581244e-11      -2.001693240823e-14 
   33       1.484543198183e-10       4.072764859581e-15       2.656855690202e-13       4.897566794175e-17       1.324173089274e-10       1.387596122925e-11      -2.369502435028e-14 
   34       1.506686464808e-10       4.498849379583e-15       2.670418784371e-13       5.197300669023e-17       1.248889534526e-10       1.314638477956e-11      -2.518406945847e-14 
   35       1.529081942465e-10       4.946562418866e-15       2.665030717156e-13       5.506044258903e-17       1.179460775540e-10       1.246011519656e-11      -2.459362934367e-14 
   36       1.551808377462e-10       5.420875050903e-15       2.640956889035e-13       5.823832375934e-17       1.115330192691e-10       1.182135114768e-11      -2.239384418591e-14 
   37       1.574890405259e-10       5.926949561526e-15       2.598905898721e-13       6.150703522636e-17       1.055663550140e-10       1.123139907603e-11      -1.915858096037e-14 
   38       1.598331634064e-10       6.467112775488e-15       2.540191047731e-13       6.486691499288e-17       1.000307027689e-10       1.068910337778e-11      -1.536691196855e-14 
   39       1.622080155157e-10       7.042928957765e-15       2.466678274234e-13       6.831831557309e-17       9.490853103367e-11       1.019000927577e-11      -1.155121870474e-14 
   40       1.646010763234e-10       7.656011654237e-15       2.380786900254e-13       7.186162955597e-17       9.015101606573e-11       9.725839081454e-12      -8.359579641605e-15 
   41       1.669982098607e-10       8.307726417027e-15       2.284804949820e-13       7.549725100925e-17       8.569506023259e-11       9.287145486484e-12      -6.393696484460e-15 
   42       1.694047194562e-10       8.998180200954e-15       2.178484972293e-13       7.922543879880e-17       8.152757249444e-11       8.873077182681e-12      -5.642012694655e-15 
   43       1.718299743385e-10       9.726904656133e-15       2.060723039267e-13       8.304641282332e-17       7.763751855101e-11       8.484255294313e-12      -5.874102849213e-15 
   44       1.742813389421e-10       1.049310684794e-14       1.930195015733e-13       8.696039076912e-17       7.399663140562e-11       8.119962825774e-12      -6.789580927487e-15 
   45       1.767637572018e-10       1.129595403323e-14       1.785454207980e-13       9.096755081195e-17       7.056951489511e-11       7.778605627114e-12      -8.058718230518e-15 
   46       1.792789618397e-10       1.213557550087e-14       1.625295378391e-13       9.506790745045e-17       6.735078948049e-11       7.459529884552e-12      -9.469380014878e-15 
   47       1.818255922524e-10       1.301232704594e-14       1.448473383155e-13       9.926139781174e-17       6.433671767901e-11       7.161552903418e-12      -1.081636383019e-14 
   48       1.843990742880e-10       1.392651074164e-14       1.253590938753e-13       1.035479128004e-16       6.151399988984e-11       6.882355212116e-12      -1.185824457116e-14 
   49       1.869913545123e-10       1.487837294852e-14       1.039089744937e-13       1.079272945403e-16       5.885906323801e-11       6.618399028948e-12      -1.231547363297e-14 
   50       1.895941703660e-10       1.586811181565e-14       8.036813098443e-14       1.123993302875e-16       5.634516384890e-11       6.365954325629e-12      -1.195893484313e-14 
   51       1.922105235872e-10       1.689590680282e-14       5.477978840867e-14       1.169637381555e-16       5.396761628109e-11       6.124694515142e-12      -1.090836011496e-14 
   52       1.948458617825e-10       1.796189373073e-14       2.725200218368e-14       1.216201730933e-16       5.172418306111e-11       5.894935837604e-12      -9.411629623436e-15 
   53       1.975047177487e-10       1.906615448212e-14      -2.081716489765e-15       1.263682274170e-16       4.960752447773e-11       5.676586354214e-12      -7.763694676215e-15 
   54       2.001906101337e-10       2.020871545772e-14      -3.306121914339e-14       1.312074280850e-16       4.760485511685e-11       5.469116536276e-12      -6.308933658467e-15 
   55       2.029060470461e-10       2.138956468393e-14      -6.553867752940e-14       1.361372890303e-16       4.570184657289e-11       5.271796201429e-12      -5.360548118354e-15 
   56       2.056527655098e-10       2.260871164986e-14      -9.950949584450e-14       1.411574896191e-16       4.389625776472e-11       5.084541627156e-12      -4.929905356475e-15 
   57       2.084313774949e-10       2.386613963062e-14      -1.350118504507e-13       1.462677357537e-16       4.218708907660e-11       4.907227362813e-12      -4.934085347580e-15 
   58       2.112411789281e-10       2.516178753835e-14      -1.720897742808e-13       1.514677081340e-16       4.057045869302e-11       4.739419700441e-12      -5.272092508278e-15 
   59       2.140800543642e-10       2.649554910492e-14      -2.107935392099e-13       1.567570616790e-16       3.903942456897e-11       4.580357640948e-12      -5.823979439567e-15 
   60       2.169443816587e-10       2.786727206457e-14      -2.511800384280e-13       1.621354249474e-16       3.758380640022e-11       4.428933860293e-12      -6.449970669381e-15 
   61       2.198305432605e-10       2.927670049491e-14      -2.933010815206e-13       1.676024785732e-16       3.619301371482e-11       4.283995222498e-12      -7.019313897746e-15 
   62       2.227400721557e-10       3.072328856550e-14      -3.371643445289e-13       1.731582124552e-16       3.486567469773e-11       4.145366201904e-12      -7.506383624942e-15 
   63       2.256754970817e-10       3.220634334247e-14      -3.827642933476e-13       1.788027255314e-16       3.360186257835e-11       4.013022448625e-12      -7.914692251229e-15 
   64       2.286387943584e-10       3.372507537215e-14      -4.300934964341e-13       1.845361537489e-16       3.240019921517e-11       3.886782793810e-12      -8.249131730809e-15 
   65       2.316313435366e-10       3.527859606015e-14      -4.791426236601e-13       1.903586719914e-16       3.125777244805e-11       3.766300354812e-12      -8.516040545539e-15 
   66       2.346538830474e-10       3.686591505047e-14      -5.299004451628e-13       1.962704960071e-16       3.017005345042e-11       3.651053640343e-12      -8.723270678646e-15 
   67       2.377064658505e-10       3.848593760462e-14      -5.823538301969e-13       2.022718843374e-16       2.913081408158e-11       3.540337655642e-12      -8.880254588443e-15 
   68       2.407889151488e-10       4.013758343916e-14      -6.364877981282e-13       2.083631283563e-16       2.813379089860e-11       3.433461666812e-12      -8.997081183885e-15 
   69       2.439023978944e-10       4.182017705857e-14      -6.922856859822e-13       2.145445157382e-16       2.717825346644e-11       3.330408909208e-12      -9.081356627766e-15 
   70       2.470480919068e-10       4.353313216921e-14      -7.497290129380e-13       2.208163630174e-16       2.626442104613e-11       3.231295188450e-12      -9.140824841498e-15 
   71       2.502266830222e-10       4.527583769563e-14      -8.087974313716e-13       2.271790284159e-16       2.539177847003e-11       3.136170503957e-12      -9.184343105015e-15 
   72       2.534383335315e-10       4.704765826605e-14      -8.694687270403e-13       2.336329134674e-16       2.455903816567e-11       3.045015439510e-12      -9.221923685265e-15 
   73       2.566826506186e-10       4.884793469783e-14      -9.317188192679e-13       2.401784646411e-16       2.376410217960e-11       2.957737553815e-12      -9.264775464703e-15 
   74       2.599586547988e-10       5.067598448292e-14      -9.955217611301e-13       2.468161749659e-16       2.300402420126e-11       2.874167771065e-12      -9.325345569785e-15 
   75       2.632647483569e-10       5.253110227332e-14      -1.060849739639e-12       2.535465856543e-16       2.227497158678e-11       2.794056771504e-12      -9.417360999462e-15 
   76       2.665993616095e-10       5.441240000728e-14      -1.127670085086e-12       2.603701884952e-16       2.157317714612e-11       2.717141257775e-12      -9.551870556217e-15 
   77       2.699630975148e-10       5.631829255712e-14      -1.195935669045e-12       2.672871088953e-16       2.089807882774e-11       2.643364683552e-12      -9.724445340641e-15 
   78       2.733569226184e-10       5.824691873302e-14      -1.265592747601e-12       2.742973677209e-16       2.024968623558e-11       2.572690405224e-12      -9.925708991866e-15 
   79       2.767815065468e-10       6.019629056390e-14      -1.336583736700e-12       2.814009749968e-16       1.962762426359e-11       2.505033235563e-12      -1.014509058693e-14 
   80       2.802372043451e-10       6.216429049462e-14      -1.408847151006e-12       2.885979294954e-16       1.903111541540e-11       2.440257267144e-12      -1.037078425225e-14 
   81       2.837240388143e-10       6.414866858311e-14      -1.482317542754e-12       2.958882183261e-16       1.845896212417e-11       2.378173695769e-12      -1.058970877505e-14 
   82       2.872416828490e-10       6.614703969758e-14      -1.556925440608e-12       3.032718165244e-16       1.790952907226e-11       2.318538643888e-12      -1.078746721484e-14 
   83       2.907894417750e-10       6.815688071363e-14      -1.632597288516e-12       3.107486866409e-16       1.738072551100e-11       2.261050984023e-12      -1.094830651489e-14 
   84       2.943666225248e-10       7.017578002955e-14      -1.709263890267e-12       3.183187936760e-16       1.687051365699e-11       2.205423196205e-12      -1.105838220827e-14 
   85       2.979737501718e-10       7.220223977828e-14      -1.786887485594e-12       3.259821536281e-16       1.637856944654e-11       2.151612204700e-12      -1.111626285514e-14 
   86       3.016115216263e-10       7.423500208468e-14      -1.865439071485e-12       3.337387922780e-16       1.590486596338e-11       2.099622996398e-12      -1.112410106496e-14 
   87       3.052804257322e-10       7.627280998834e-14      -1.944890376164e-12       3.415887304080e-16       1.544916313263e-11       2.049438054127e-12      -1.108449816923e-14 
   88       3.089807321064e-10       7.831440888140e-14      -2.025213940910e-12       3.495319836492e-16       1.501099888215e-11       2.001016407528e-12      -1.100051938068e-14 
   89       3.127124799772e-10       8.035854794636e-14      -2.106383201855e-12       3.575685623284e-16       1.458968030396e-11       1.954292683945e-12      -1.087570895261e-14 
   90       3.164754670241e-10       8.240398159388e-14      -2.188372571800e-12       3.656984713156e-16       1.418427481555e-11       1.909176159308e-12      -1.071410533815e-14 
   91       3.202692382164e-10       8.444947090058e-14      -2.271157522022e-12       3.739217098703e-16       1.379360132131e-11       1.865549809021e-12      -1.052025634945e-14 
   92       3.240930746522e-10       8.649378504688e-14      -2.354714664077e-12       3.822382714893e-16       1.341622137384e-11       1.823269358841e-12      -1.029923431706e-14 
   93       3.279462500465e-10       8.853559267325e-14      -2.439013690443e-12       3.906482612497e-16       1.305078064547e-11       1.782199518617e-12      -1.005617183921e-14 
   94       3.318288685636e-10       9.057311413475e-14      -2.523991632161e-12       3.991522683587e-16       1.269711128842e-11       1.742330978771e-12      -9.794756232388e-15 
   95       3.357411329453e-10       9.260441936061e-14      -2.609574862780e-12       4.077510496136e-16       1.235527979936e-11       1.703679337152e-12      -9.518535620388e-15 
   96       3.396830807037e-10       9.462753320325e-14      -2.695686865017e-12       4.164454183382e-16       1.202524750603e-11       1.666249051217e-12      -9.231386631966e-15 
   97       3.436545766336e-10       9.664043536511e-14      -2.782248200808e-12       4.252362458423e-16       1.170686653721e-11       1.630032999318e-12      -8.937522979321e-15 
   98       3.476553053259e-10       9.864106032530e-14      -2.869176481369e-12       4.341244628824e-16       1.139987579277e-11       1.595012041990e-12      -8.641504036574e-15 
   99       3.516847636806e-10       1.006272972664e-13      -2.956386337250e-12       4.431110611208e-16       1.110389691366e-11       1.561154583237e-12      -8.348243418260e-15 
  100       3.557422534197e-10       1.025969900012e-13      -3.043789388387e-12       4.521970945861e-16       1.081843025196e-11       1.528416131823e-12      -8.063017557812e-15 
  101       3.598268736002e-10       1.045479368993e-13      -3.131294214167e-12       4.613836811329e-16       1.054285084087e-11       1.496738862557e-12      -7.791474286044e-15 
  102       3.639375131274e-10       1.064778908141e-13      -3.218806323472e-12       4.706720039017e-16       1.027640436473e-11       1.466051177581e-12      -7.539641409637e-15 
  103       3.680728432673e-10       1.083845590093e-13      -3.306228124746e-12       4.800633127787e-16       1.001820312906e-11       1.436267267658e-12      -7.313935289630e-15 
  104       3.722316005728e-10       1.102657117453e-13      -3.393465439195e-12       4.895587939232e-16       9.767427411926e-12       1.407306634662e-12      -7.119682255062e-15 
  105       3.764134953116e-10       1.121195249015e-13      -3.480448106946e-12       4.991591551307e-16       9.523969175169e-12       1.379156607414e-12      -6.956436892377e-15 
  106       3.806184123667e-10       1.139442837163e-13      -3.567112121615e-12       5.088649869194e-16       9.287868200952e-12       1.351817492253e-12      -6.822044373758e-15 
  107       3.848461275388e-10       1.157382793676e-13      -3.653393377180e-12       5.186768894710e-16       9.059112723787e-12       1.325283149246e-12      -6.714063476457e-15 
