# dimensionless total [l(l+1)/2pi] C_l's
# for l=2 to 3000, i.e. number of multipoles equal to 2999
#
# -> if you prefer output in CAMB/HealPix/LensPix units/order, set 'format' to 'camb' in input file
# -> if you don't want to see such a header, set 'headers' to 'no' in input file
# -> for CMB lensing (phi), these are C_l^phi-phi for the lensing potential.
#    Remember the conversion factors:
#    C_l^dd (deflection) = l(l+1) C_l^phi-phi
#    C_l^gg (shear/convergence) = 1/4 (l(l+1))^2 C_l^phi-phi
#
# 1:l     2:TT                     3:EE                     4:TE                     5:BB                     6:phiphi                 7:TPhi                   8:Ephi               
    2       1.495046355521e-10       7.308128467853e-15       4.815629340867e-13       0.000000000000e+00       8.617630611713e-09       4.850699930229e-10      -2.515767697604e-12 
    3       1.409070602092e-10       1.238700087673e-14       6.069035292983e-13       0.000000000000e+00       5.401657323322e-09       3.466404365637e-10      -2.211460938037e-12 
    4       1.324392596980e-10       1.446496731572e-14       6.278237471222e-13       0.000000000000e+00       3.768939763967e-09       2.637180084640e-10      -1.764134091316e-12 
    5       1.257318175383e-10       1.337936833552e-14       5.879821072611e-13       0.000000000000e+00       2.816034037098e-09       2.091586662482e-10      -1.309603831868e-12 
    6       1.207893869326e-10       1.032460485718e-14       5.174286906987e-13       0.000000000000e+00       2.200652922968e-09       1.707494486544e-10      -8.949601926539e-13 
    7       1.173173336010e-10       6.843187033826e-15       4.365640558901e-13       0.000000000000e+00       1.774805253978e-09       1.423999413291e-10      -5.445173132992e-13 
    8       1.149931212624e-10       4.043582726110e-15       3.576928115355e-13       0.000000000000e+00       1.465816638228e-09       1.207417668949e-10      -2.690625776173e-13 
    9       1.135733997961e-10       2.337020768247e-15       2.880880605703e-13       0.000000000000e+00       1.233987302905e-09       1.037521563053e-10      -7.021046065772e-14 
   10       1.128442709265e-10       1.571884962352e-15       2.318041889417e-13       0.000000000000e+00       1.055293135932e-09       9.017421095233e-11       5.737470490838e-14 
   11       1.126643076535e-10       1.345943513685e-15       1.905750311566e-13       0.000000000000e+00       8.868474133959e-10       7.938985379009e-11       1.232785293644e-13 
   12       1.129280978082e-10       1.288356372207e-15       1.640741641403e-13       0.000000000000e+00       7.748844669425e-10       7.018186483166e-11       1.421472825824e-13 
   13       1.135123134650e-10       1.200800467287e-15       1.505333482327e-13       0.000000000000e+00       6.829819824528e-10       6.265100533588e-11       1.277437643875e-13 
   14       1.143188138361e-10       1.054960655713e-15       1.474015601210e-13       0.000000000000e+00       6.065211601889e-10       5.612014649549e-11       9.282886810190e-14 
   15       1.153545552748e-10       9.106746334226e-16       1.516654152364e-13       0.000000000000e+00       5.421652907832e-10       5.066366203099e-11       4.963900026000e-14 
   16       1.165831942764e-10       8.294447107151e-16       1.602806397936e-13       0.000000000000e+00       4.874508594219e-10       4.604215508064e-11       7.281021886837e-15 
   17       1.179169421671e-10       8.287411747340e-16       1.707700211049e-13       0.000000000000e+00       4.405170653608e-10       4.205380033173e-11      -2.788599823498e-14 
   18       1.193636509359e-10       8.811027141864e-16       1.812644022093e-13       0.000000000000e+00       3.997811712369e-10       3.850814856503e-11      -5.230426653230e-14 
   19       1.209312264164e-10       9.538402308084e-16       1.907836440488e-13       0.000000000000e+00       3.645996413442e-10       3.537702526136e-11      -6.508983335884e-14 
   20       1.225615152887e-10       1.013446997748e-15       1.985850745987e-13       0.000000000000e+00       3.336135436641e-10       3.261108841467e-11      -6.707255829286e-14 
   21       1.242669019026e-10       1.062822038222e-15       2.047475271225e-13       0.000000000000e+00       3.063361351147e-10       3.016665410821e-11      -6.039895911023e-14 
   22       1.260483451575e-10       1.120051364009e-15       2.097226575802e-13       0.000000000000e+00       2.821156550437e-10       2.796157921434e-11      -4.842667624298e-14 
   23       1.278945523789e-10       1.204534519238e-15       2.139584319064e-13       0.000000000000e+00       2.606191534309e-10       2.596343863491e-11      -3.409583169276e-14 
   24       1.297724969005e-10       1.334887833895e-15       2.179754953300e-13       0.000000000000e+00       2.413494776218e-10       2.413730233479e-11      -2.049378138841e-14 
   25       1.316994967680e-10       1.511540296143e-15       2.222676060947e-13       0.000000000000e+00       2.240800934489e-10       2.249324815790e-11      -9.461582657730e-15 
   26       1.336887104782e-10       1.727493865548e-15       2.272791081985e-13       0.000000000000e+00       2.084986293001e-10       2.103502524020e-11      -2.340540876653e-15 
   27       1.357212135266e-10       1.976326600903e-15       2.330320239284e-13       0.000000000000e+00       1.944181876090e-10       1.972994910308e-11       6.608500122454e-16 
   28       1.377610238316e-10       2.251617075788e-15       2.393447098842e-13       0.000000000000e+00       1.815959706354e-10       1.852703517602e-11      -8.803885770849e-17 
   29       1.398177781601e-10       2.552880040613e-15       2.459132473551e-13       0.000000000000e+00       1.699665147120e-10       1.742147981115e-11      -3.786300345328e-15 
   30       1.419056917331e-10       2.881361183009e-15       2.523009966112e-13       0.000000000000e+00       1.594049583908e-10       1.641403647767e-11      -9.207400359949e-15 
   31       1.440286014305e-10       3.237686631658e-15       2.579932000405e-13       0.000000000000e+00       1.496958758021e-10       1.549620717421e-11      -1.491051546912e-14 
   32       1.461894202729e-10       3.619744542082e-15       2.626179581986e-13       0.000000000000e+00       1.407891686558e-10       1.465904223865e-11      -2.001629498255e-14 
   33       1.483814961459e-10       4.023909152668e-15       2.657973171140e-13       0.000000000000e+00       1.326218986261e-10       1.388572899351e-11      -2.369440609621e-14 
   34       1.505920173587e-10       4.447030100702e-15       2.671642933289e-13       0.000000000000e+00       1.250798175972e-10       1.315547223432e-11      -2.518346590739e-14 
   35       1.528276903933e-10       4.891695966237e-15       2.666367506451e-13       0.000000000000e+00       1.181243587392e-10       1.246856174701e-11      -2.459303638124e-14 
   36       1.550963924908e-10       5.362878262058e-15       2.642412298457e-13       0.000000000000e+00       1.116997520272e-10       1.182920090147e-11      -2.239326115476e-14 
   37       1.574005899689e-10       5.865739726935e-15       2.600485874614e-13       0.000000000000e+00       1.057224144438e-10       1.123869910235e-11      -1.915801292761e-14 
   38       1.597406464257e-10       6.402607722821e-15       2.541901406310e-13       0.000000000000e+00       1.001769269387e-10       1.069590407220e-11      -1.536637651436e-14 
   39       1.621113739075e-10       6.975047085906e-15       2.468524638695e-13       0.000000000000e+00       9.504571606104e-11       1.019636292090e-11      -1.155074992423e-14 
   40       1.645002550066e-10       7.584671946937e-15       2.382774649504e-13       0.000000000000e+00       9.027985833267e-11       9.731797570169e-12      -8.359231167167e-15 
   41       1.668931569646e-10       8.232848497671e-15       2.286939147960e-13       0.000000000000e+00       8.581613101411e-11       9.292757559818e-12      -6.393533384010e-15 
   42       1.692953859697e-10       8.919684529413e-15       2.180770239171e-13       0.000000000000e+00       8.164141442720e-11       8.878384537645e-12      -5.642065221228e-15 
   43       1.717163140834e-10       9.644712627907e-15       2.063163456321e-13       0.000000000000e+00       7.774465158639e-11       8.489289092351e-12      -5.874346215465e-15 
   44       1.741633086756e-10       1.040714085685e-14       1.932794043075e-13       0.000000000000e+00       7.409752247679e-11       8.124740210957e-12      -6.789924717027e-15 
   45       1.766413165654e-10       1.120613758474e-14       1.788214598285e-13       0.000000000000e+00       7.066456556827e-11       7.783129709946e-12      -8.059016999254e-15 
   46       1.791520727724e-10       1.204183349118e-14       1.628219089096e-13       0.000000000000e+00       6.744038958884e-11       7.463801907381e-12      -9.469516423461e-15 
   47       1.816942187925e-10       1.291458592797e-14       1.451561483367e-13       0.000000000000e+00       6.442124864442e-11       7.165575469597e-12      -1.081627991386e-14 
   48       1.842631825207e-10       1.382469865102e-14       1.256843511819e-13       0.000000000000e+00       6.159381820874e-11       6.886132113117e-12      -1.185795374586e-14 
   49       1.868509125164e-10       1.477241983418e-14       1.042505787240e-13       0.000000000000e+00       5.893448275606e-11       6.621935051412e-12      -1.231507335919e-14 
   50       1.894491480953e-10       1.575794959106e-14       8.072586559943e-14       0.000000000000e+00       5.641645013304e-11       6.369255670703e-12      -1.195859379354e-14 
   51       1.920608925433e-10       1.678146955478e-14       5.515332284910e-14       0.000000000000e+00       5.403502396538e-11       6.127771297141e-12      -1.090821916823e-14 
   52       1.946915948367e-10       1.784311789428e-14       2.764088635329e-14       0.000000000000e+00       5.178795978980e-11       5.897803033087e-12      -9.411766777992e-15 
   53       1.973457890174e-10       1.894297900603e-14      -1.678060758236e-15       0.000000000000e+00       4.966790198805e-11       5.679264177517e-12      -7.764113514219e-15 
   54       2.000269948496e-10       2.008108197545e-14      -3.264350685731e-14       0.000000000000e+00       4.766203973678e-11       5.471630824738e-12      -6.309551236828e-15 
   55       2.027377215814e-10       2.125741761568e-14      -6.510776369090e-14       0.000000000000e+00       4.575601683086e-11       5.274176982836e-12      -5.361205793362e-15 
   56       2.054797079150e-10       2.247199806574e-14      -9.906635958947e-14       0.000000000000e+00       4.394758674398e-11       5.086815682783e-12      -4.930456393614e-15 
   57       2.082535676422e-10       2.372480930279e-14      -1.345575938914e-13       0.000000000000e+00       4.223574714738e-11       4.909415320235e-12      -4.934423817595e-15 
   58       2.110585985097e-10       2.501579306470e-14      -1.716256267912e-13       0.000000000000e+00       4.061660880755e-11       4.741534762981e-12      -5.272160683235e-15 
   59       2.138926868931e-10       2.634484603516e-14      -2.103208617184e-13       0.000000000000e+00       3.908321727138e-11       4.582404255621e-12      -5.823775531767e-15 
   60       2.167522124699e-10       2.771181902887e-14      -2.507003277174e-13       0.000000000000e+00       3.762537455136e-11       4.430906324255e-12      -6.449556913101e-15 
   61       2.196335597761e-10       2.911645916267e-14      -2.928159700443e-13       0.000000000000e+00       3.623247185917e-11       4.285878871688e-12      -7.018808386209e-15 
   62       2.225382650052e-10       3.055822304413e-14      -3.366755855861e-13       0.000000000000e+00       3.490313421906e-11       4.147147162722e-12      -7.505898376376e-15 
   63       2.254688605625e-10       3.203642001438e-14      -3.822737576107e-13       0.000000000000e+00       3.363743412083e-11       4.014690648247e-12      -7.914313529826e-15 
   64       2.284273266609e-10       3.355026288998e-14      -4.296031725448e-13       0.000000000000e+00       3.243399036382e-11       3.888332518358e-12      -8.248915710451e-15 
   65       2.314150469799e-10       3.509886533915e-14      -4.786546186896e-13       0.000000000000e+00       3.128988528037e-11       3.767730829895e-12      -8.516008790052e-15 
   66       2.344327643242e-10       3.668123925784e-14      -5.294169849376e-13       0.000000000000e+00       3.020058195937e-11       3.652369633991e-12      -8.723405438586e-15 
   67       2.374805362824e-10       3.829629214590e-14      -5.818772594882e-13       0.000000000000e+00       2.915984146971e-11       3.541550103607e-12      -8.880493914411e-15 
   68       2.405581908579e-10       3.994294582848e-14      -6.360205843476e-13       0.000000000000e+00       2.816138955760e-11       3.434586897001e-12      -8.997325666541e-15 
   69       2.436668996851e-10       4.162052641984e-14      -6.918304345210e-13       0.000000000000e+00       2.720449393251e-11       3.331463283827e-12      -9.081514163742e-15 
   70       2.468078453960e-10       4.332844902589e-14      -7.492884729897e-13       0.000000000000e+00       2.628937357535e-11       3.232293435880e-12      -9.140824784268e-15 
   71       2.499817188649e-10       4.506610386133e-14      -8.083744982810e-13       0.000000000000e+00       2.541551190467e-11       3.137125377974e-12      -9.184139403793e-15 
   72       2.531886876541e-10       4.683285672921e-14      -8.690664446107e-13       0.000000000000e+00       2.458161874377e-11       3.045937364483e-12      -9.221498142484e-15 
   73       2.564283644590e-10       4.862804950054e-14      -9.313403820263e-13       0.000000000000e+00       2.378559228777e-11       2.958634255887e-12      -9.264141112074e-15 
   74       2.596997755547e-10       5.045100059386e-14      -9.951705165497e-13       0.000000000000e+00       2.302448107065e-11       2.875043895311e-12      -9.324550162935e-15 
   75       2.630013292411e-10       5.230100545488e-14      -1.060529190320e-12       0.000000000000e+00       2.229444593233e-11       2.794913485074e-12      -9.416490631158e-15 
   76       2.663314616585e-10       5.417717676661e-14      -1.127383895579e-12       0.000000000000e+00       2.159171331525e-11       2.717976524820e-12      -9.551042586899e-15 
   77       2.696907799479e-10       5.607793037970e-14      -1.195687687674e-12       0.000000000000e+00       2.091571992092e-11       2.644175727904e-12      -9.723766769786e-15 
   78       2.730802543944e-10       5.800140607483e-14      -1.265387015959e-12       0.000000000000e+00       2.026647506277e-11       2.573474360659e-12      -9.925263272648e-15 
   79       2.765005583493e-10       5.994561675438e-14      -1.336424494753e-12       0.000000000000e+00       1.964360279047e-11       2.505787145686e-12      -1.014493458183e-14 
   80       2.799520505664e-10       6.190844563552e-14      -1.408738842255e-12       0.000000000000e+00       1.904632418503e-11       2.440978085325e-12      -1.037094508575e-14 
   81       2.834347575372e-10       6.388764344344e-14      -1.482264819447e-12       0.000000000000e+00       1.847343965390e-11       2.378858285119e-12      -1.059018058343e-14 
   82       2.869483558269e-10       6.588082560439e-14      -1.556933169006e-12       0.000000000000e+00       1.792331122605e-11       2.319183777283e-12      -1.078820779306e-14 
   83       2.904921544102e-10       6.788546943891e-14      -1.632670554215e-12       0.000000000000e+00       1.739384484700e-11       2.261653344163e-12      -1.094923386056e-14 
   84       2.940654638597e-10       6.989916370864e-14      -1.709407993629e-12       0.000000000000e+00       1.688299951193e-11       2.205979525222e-12      -1.105938074467e-14 
   85       2.976688129269e-10       7.192041093803e-14      -1.787107905495e-12       0.000000000000e+00       1.639045042475e-11       2.152119930759e-12      -1.111722076034e-14 
   86       3.013029021956e-10       7.394795357279e-14      -1.865741455564e-12       0.000000000000e+00       1.591617037635e-11       2.100080462829e-12      -1.112492148687e-14 
   87       3.049682241632e-10       7.598053486531e-14      -1.945280540446e-12       0.000000000000e+00       1.545991870103e-11       2.049844608600e-12      -1.108510117777e-14 
   88       3.086650520784e-10       7.801690030903e-14      -2.025697869308e-12       0.000000000000e+00       1.502123242592e-11       2.001372493798e-12      -1.100084398149e-14 
   89       3.123934287778e-10       8.005579907284e-14      -2.106967045569e-12       0.000000000000e+00       1.459941742051e-11       1.954599936142e-12      -1.087571516221e-14 
   90       3.161531555246e-10       8.209598543541e-14      -2.189062648590e-12       0.000000000000e+00       1.419353954616e-11       1.909437498792e-12      -1.071377632059e-14 
   91       3.199437808450e-10       8.413622021964e-14      -2.271960315377e-12       0.000000000000e+00       1.380241580555e-11       1.865769543783e-12      -1.051960061451e-14 
   92       3.237645893661e-10       8.617527222700e-14      -2.355636822271e-12       0.000000000000e+00       1.342460549226e-11       1.823453285471e-12      -1.029828797987e-14 
   93       3.276148587422e-10       8.821180922558e-14      -2.440062013472e-12       0.000000000000e+00       1.305875215093e-11       1.782354672366e-12      -1.005499502061e-14 
   94       3.314946988809e-10       9.024404904396e-14      -2.525173020531e-12       0.000000000000e+00       1.270468751352e-11       1.742464261826e-12      -9.793410739604e-15 
   95       3.354043188856e-10       9.227005840971e-14      -2.610896298472e-12       0.000000000000e+00       1.236247800405e-11       1.703797103923e-12      -9.517078632532e-15 
   96       3.393437628305e-10       9.428785863942e-14      -2.697155403665e-12       0.000000000000e+00       1.203208474070e-11       1.666357030769e-12      -9.229870035975e-15 
   97       3.433129022787e-10       9.629542555699e-14      -2.783870963600e-12       0.000000000000e+00       1.171335950088e-11       1.630136215493e-12      -8.935992686116e-15 
   98       3.473114287992e-10       9.829068941198e-14      -2.870960646669e-12       0.000000000000e+00       1.140604068622e-11       1.595114731219e-12      -8.639999277445e-15 
   99       3.513388464846e-10       1.002715347979e-13      -2.958339131942e-12       0.000000000000e+00       1.110974928757e-11       1.561260110045e-12      -8.346796021464e-15 
  100       3.553944644684e-10       1.022358005703e-13      -3.045918078947e-12       0.000000000000e+00       1.082398485007e-11       1.528526902021e-12      -8.061651205396e-15 
  101       3.594773894426e-10       1.041812797656e-13      -3.133606097442e-12       0.000000000000e+00       1.054812143816e-11       1.496856234128e-12      -7.790203750887e-15 
  102       3.635865181754e-10       1.061057195188e-13      -3.221308717201e-12       0.000000000000e+00       1.028140360054e-11       1.466175369254e-12      -7.538471772714e-15 
  103       3.677205300279e-10       1.080068209821e-13      -3.308928357785e-12       0.000000000000e+00       1.002294233527e-11       1.436397265175e-12      -7.312861137491e-15 
  104       3.718781692529e-10       1.098823479561e-13      -3.396370852783e-12       0.000000000000e+00       9.771916710459e-12       1.407440350179e-12      -7.118689025030e-15 
  105       3.760591514335e-10       1.117304696718e-13      -3.483566091337e-12       0.000000000000e+00       9.528218435683e-12       1.379291842231e-12      -6.955509033893e-15 
  106       3.802633661113e-10       1.135494643767e-13      -3.570450121622e-12       0.000000000000e+00       9.291887245775e-12       1.351952200932e-12      -6.821167581757e-15 
  107       3.844905936941e-10       1.153376158565e-13      -3.656958886688e-12       0.000000000000e+00       9.062911266920e-12       1.325415458469e-12      -6.713224843451e-15 
