# dimensionless total [l(l+1)/2pi] C_l's
# for l=2 to 3000, i.e. number of multipoles equal to 2999
#
# -> if you prefer output in CAMB/HealPix/LensPix units/order, set 'format' to 'camb' in input file
# -> if you don't want to see such a header, set 'headers' to 'no' in input file
# -> for CMB lensing (phi), these are C_l^phi-phi for the lensing potential.
#    Remember the conversion factors:
#    C_l^dd (deflection) = l(l+1) C_l^phi-phi
#    C_l^gg (shear/convergence) = 1/4 (l(l+1))^2 C_l^phi-phi
#
# 1:l     2:TT                     3:EE                     4:TE                     5:BB                     6:phiphi                 7:TPhi                   8:Ephi               
    2       1.338945392946e-10       6.932663988449e-15       5.026307924016e-13       0.000000000000e+00       9.420864181234e-09       3.742529019914e-10      -2.474924281913e-12 
    3       1.288883659240e-10       1.198017372582e-14       6.205162597069e-13       0.000000000000e+00       5.767570680450e-09       2.727863590475e-10      -2.189453356805e-12 
    4       1.230269870083e-10       1.436921361372e-14       6.392425875513e-13       0.000000000000e+00       4.002277531016e-09       2.103508735827e-10      -1.769645657621e-12 
    5       1.181838887429e-10       1.370948765105e-14       5.996906519577e-13       0.000000000000e+00       2.983720467663e-09       1.683730873881e-10      -1.339571160593e-12 
    6       1.145824295806e-10       1.095849942973e-14       5.300817181679e-13       0.000000000000e+00       2.328414391918e-09       1.383927027748e-10      -9.422628763062e-13 
    7       1.120582866726e-10       7.541018544078e-15       4.499843413054e-13       0.000000000000e+00       1.877245826785e-09       1.160015511381e-10      -6.005412221893e-13 
    8       1.104480021936e-10       4.596756670221e-15       3.712458011837e-13       0.000000000000e+00       1.550874373140e-09       9.871883674028e-11      -3.253686512889e-13 
    9       1.095514149654e-10       2.657087391912e-15       3.008700704357e-13       0.000000000000e+00       1.305515242147e-09       8.508997682005e-11      -1.197499684572e-13 
   10       1.092561844878e-10       1.693176263590e-15       2.427775222024e-13       0.000000000000e+00       1.115396988247e-09       7.417733224755e-11       1.947460649781e-14 
   11       1.094098679216e-10       1.366881934316e-15       1.987234736926e-13       0.000000000000e+00       9.351393549833e-10       6.552755985122e-11       9.921220585485e-14 
   12       1.098907954431e-10       1.300636214576e-15       1.688896413028e-13       0.000000000000e+00       8.166366069375e-10       5.808777274009e-11       1.324896743791e-13 
   13       1.106446313715e-10       1.246867975488e-15       1.521248164762e-13       0.000000000000e+00       7.194235943465e-10       5.170477650482e-11       1.300914871544e-13 
   14       1.116455606249e-10       1.126507766219e-15       1.462026747337e-13       0.000000000000e+00       6.385983515234e-10       4.650834282864e-11       1.047771892436e-13 
   15       1.128265987732e-10       9.750255291593e-16       1.483115224073e-13       0.000000000000e+00       5.706177999518e-10       4.212200839014e-11       6.715661141890e-14 
   16       1.141110089734e-10       8.601897464830e-16       1.556271313722e-13       0.000000000000e+00       5.128498841606e-10       3.828603868571e-11       2.630634641925e-14 
   17       1.155366366912e-10       8.221895527775e-16       1.656636409077e-13       0.000000000000e+00       4.633195068483e-10       3.495876246147e-11      -1.069955939499e-14 
   18       1.170506676174e-10       8.546357153497e-16       1.763447082619e-13       0.000000000000e+00       4.203491919430e-10       3.203740803238e-11      -3.936087159428e-14 
   19       1.186601566589e-10       9.266274076159e-16       1.865183105085e-13       0.000000000000e+00       3.832562262594e-10       2.949460436516e-11      -5.782617399145e-14 
   20       1.203464988105e-10       9.974793844239e-16       1.952171594192e-13       0.000000000000e+00       3.506000723491e-10       2.726425757316e-11      -6.573951395053e-14 
   21       1.221002740938e-10       1.057014137784e-15       2.022458524473e-13       0.000000000000e+00       3.218637245706e-10       2.527954141042e-11      -6.438272063780e-14 
   22       1.238878764466e-10       1.108462963293e-15       2.077688393455e-13       0.000000000000e+00       2.963571470386e-10       2.344771172791e-11      -5.633495330326e-14 
   23       1.257279763943e-10       1.170715351439e-15       2.122034357795e-13       0.000000000000e+00       2.737270966840e-10       2.177930507870e-11      -4.413057127740e-14 
   24       1.276315656775e-10       1.268081056727e-15       2.161248289829e-13       0.000000000000e+00       2.534474113668e-10       2.029634031730e-11      -3.067898893692e-14 
   25       1.295843643275e-10       1.408916511105e-15       2.199950125207e-13       0.000000000000e+00       2.352778544988e-10       1.898167005277e-11      -1.805106838121e-14 
   26       1.315518697499e-10       1.594388288667e-15       2.242479498754e-13       0.000000000000e+00       2.188880829590e-10       1.779183540341e-11      -8.093475476864e-15 
   27       1.335399644550e-10       1.817483258954e-15       2.291150681542e-13       0.000000000000e+00       2.040807166123e-10       1.670343542962e-11      -1.706161353929e-15 
   28       1.355568484959e-10       2.068382128213e-15       2.346984232375e-13       0.000000000000e+00       1.905997564458e-10       1.569370083919e-11       7.039902754766e-16 
   29       1.376090644475e-10       2.345460882256e-15       2.408120899528e-13       0.000000000000e+00       1.783757523740e-10       1.476545912876e-11      -4.061610208686e-16 
   30       1.396897764698e-10       2.649324569745e-15       2.470930719633e-13       0.000000000000e+00       1.672766558221e-10       1.392298046092e-11      -4.045439609022e-15 
   31       1.417824666581e-10       2.980058795666e-15       2.530907716438e-13       0.000000000000e+00       1.570751282826e-10       1.316240773576e-11      -8.981463101305e-15 
   32       1.438936755486e-10       3.336307683287e-15       2.584332036358e-13       0.000000000000e+00       1.477182416845e-10       1.247459470600e-11      -1.433039837743e-14 
   33       1.460300540823e-10       3.715767307754e-15       2.627100601416e-13       0.000000000000e+00       1.391397382880e-10       1.184164683568e-11      -1.915406488648e-14 
   34       1.481920120048e-10       4.116115756734e-15       2.654962902799e-13       0.000000000000e+00       1.312193811753e-10       1.124225960706e-11      -2.249850605541e-14 
   35       1.503853174512e-10       4.537607838430e-15       2.666056251629e-13       0.000000000000e+00       1.239163516743e-10       1.067618500769e-11      -2.411234696412e-14 
   36       1.526119171188e-10       4.981389082194e-15       2.659240303987e-13       0.000000000000e+00       1.171716678733e-10       1.014758059301e-11      -2.397895471994e-14 
   37       1.548685890276e-10       5.449060417584e-15       2.633788705850e-13       0.000000000000e+00       1.108971247232e-10       9.658137202382e-12      -2.218906072993e-14 
   38       1.571558074124e-10       5.943463918630e-15       2.590594741159e-13       0.000000000000e+00       1.050764275481e-10       9.206500154108e-12      -1.913689397532e-14 
   39       1.594705694153e-10       6.468210276277e-15       2.531410447429e-13       0.000000000000e+00       9.969111300652e-11       8.788200699690e-12      -1.540205867926e-14 
   40       1.618031878232e-10       7.027517425609e-15       2.458572030072e-13       0.000000000000e+00       9.468979791033e-11       8.395461297453e-12      -1.170912342922e-14 
   41       1.641420881963e-10       7.625275932941e-15       2.374449162900e-13       0.000000000000e+00       9.000607231939e-11       8.019850733272e-12      -8.773680353907e-15 
   42       1.664916442783e-10       8.261788034537e-15       2.279487069757e-13       0.000000000000e+00       8.562608736866e-11       7.661944958443e-12      -6.757629756431e-15 
   43       1.688590522398e-10       8.936030904933e-15       2.173590238140e-13       0.000000000000e+00       8.153813621578e-11       7.324351902433e-12      -5.652411878321e-15 
   44       1.712491115181e-10       9.646509195037e-15       2.056652775588e-13       0.000000000000e+00       7.771237056987e-11       7.008984650548e-12      -5.425267511635e-15 
   45       1.736644340499e-10       1.039168820709e-14       1.928373758744e-13       0.000000000000e+00       7.411144889310e-11       6.716817085856e-12      -5.996955017982e-15 
   46       1.761068001182e-10       1.117151614478e-14       1.787644674346e-13       0.000000000000e+00       7.072967960323e-11       6.447232576338e-12      -7.171327746306e-15 
   47       1.785757360816e-10       1.198630765664e-14       1.632973633365e-13       0.000000000000e+00       6.756312409117e-11       6.198358667714e-12      -8.681548294196e-15 
   48       1.810678201424e-10       1.283631888410e-14       1.462637886341e-13       0.000000000000e+00       6.459779254483e-11       5.967143381696e-12      -1.020573668932e-14 
   49       1.835764330283e-10       1.372174509572e-14       1.274670300557e-13       0.000000000000e+00       6.180889648776e-11       5.749273606429e-12      -1.136393929986e-14 
   50       1.860947149312e-10       1.464277030162e-14       1.067307454395e-13       0.000000000000e+00       5.916831311219e-11       5.540316419163e-12      -1.181547247266e-14 
   51       1.886259609671e-10       1.559973746191e-14       8.405086835506e-14       0.000000000000e+00       5.667110097453e-11       5.339697611676e-12      -1.158913553995e-14 
   52       1.911756164833e-10       1.659302039009e-14       5.948259877129e-14       0.000000000000e+00       5.431488965300e-11       5.147662023487e-12      -1.083739097638e-14 
   53       1.937482213202e-10       1.762297588924e-14       3.309864569431e-14       0.000000000000e+00       5.209194455114e-11       4.964121506929e-12      -9.745475900661e-15 
   54       1.963473113747e-10       1.868994383242e-14       4.990047201315e-15       0.000000000000e+00       4.998880587392e-11       4.788630867345e-12      -8.533094502577e-15 
   55       1.989753514468e-10       1.979418184764e-14      -2.475226086498e-14       0.000000000000e+00       4.799039336367e-11       4.620619798127e-12      -7.412922835669e-15 
   56       2.016337397504e-10       2.093565018795e-14      -5.609997927039e-14       0.000000000000e+00       4.609434168605e-11       4.460211276635e-12      -6.450174665832e-15 
   57       2.043226321041e-10       2.211417355917e-14      -8.903900954246e-14       0.000000000000e+00       4.429959390001e-11       4.307564332765e-12      -5.671113183486e-15 
   58       2.070408156455e-10       2.332949941922e-14      -1.235514952441e-13       0.000000000000e+00       4.260206474758e-11       4.162622087252e-12      -5.103191642709e-15 
   59       2.097856116137e-10       2.458129551050e-14      -1.596157519921e-13       0.000000000000e+00       4.099445362066e-11       4.025097665692e-12      -4.775063153143e-15 
   60       2.125527781319e-10       2.586914739247e-14      -1.972061974750e-13       0.000000000000e+00       3.946605752773e-11       3.894460112567e-12      -4.716590471907e-15 
   61       2.153381683929e-10       2.719259629564e-14      -2.363020493318e-13       0.000000000000e+00       3.800574325326e-11       3.770090722145e-12      -4.945272456977e-15 
   62       2.181433600845e-10       2.855126819494e-14      -2.769158585169e-13       0.000000000000e+00       3.661206654331e-11       3.651824902617e-12      -5.421941000634e-15 
   63       2.209711227855e-10       2.994476946148e-14      -3.190712855185e-13       0.000000000000e+00       3.528510272284e-11       3.539507496895e-12      -6.085091916808e-15 
   64       2.238237333665e-10       3.137264793288e-14      -3.627951017463e-13       0.000000000000e+00       3.402340285673e-11       3.432824591470e-12      -6.863177921183e-15 
   65       2.267029344696e-10       3.283439172517e-14      -4.081173977476e-13       0.000000000000e+00       3.282390695537e-11       3.331294837643e-12      -7.674187434046e-15 
   66       2.296098929889e-10       3.432942804462e-14      -4.550717914226e-13       0.000000000000e+00       3.168185718011e-11       3.234260772740e-12      -8.425223383135e-15 
   67       2.325451585507e-10       3.585712199960e-14      -5.036956362408e-13       0.000000000000e+00       3.059071104888e-11       3.140880141342e-12      -9.012082006495e-15 
   68       2.355090214494e-10       3.741680886191e-14      -5.540195063311e-13       0.000000000000e+00       2.954388912652e-11       3.050348718032e-12      -9.345489724924e-15 
   69       2.385027634854e-10       3.900790109740e-14      -6.060327122327e-13       0.000000000000e+00       2.854062332856e-11       2.962640604145e-12      -9.436928640600e-15 
   70       2.415275871565e-10       4.062980098777e-14      -6.597111396711e-13       0.000000000000e+00       2.758114316115e-11       2.877903032915e-12      -9.329524789738e-15 
   71       2.445842078849e-10       4.228186877333e-14      -7.150272895909e-13       0.000000000000e+00       2.666490692449e-11       2.796235431614e-12      -9.073184700038e-15 
   72       2.476728227135e-10       4.396342232032e-14      -7.719502121233e-13       0.000000000000e+00       2.579056183611e-11       2.717686663539e-12      -8.724855985594e-15 
   73       2.507930790025e-10       4.567373678824e-14      -8.304454405529e-13       0.000000000000e+00       2.495590415417e-11       2.642252269982e-12      -8.348787941810e-15 
   74       2.539440431257e-10       4.741204429724e-14      -8.904749252849e-13       0.000000000000e+00       2.415783930078e-11       2.569871712215e-12      -8.016792140304e-15 
   75       2.571241691666e-10       4.917753359543e-14      -9.519969678125e-13       0.000000000000e+00       2.339234198526e-11       2.500425613464e-12      -7.808503023827e-15 
   76       2.603319140081e-10       5.096927213181e-14      -1.014967760313e-12       0.000000000000e+00       2.265545576486e-11       2.433772391824e-12      -7.791606579839e-15 
   77       2.635677812885e-10       5.278595660469e-14      -1.079346474527e-12       0.000000000000e+00       2.194659030902e-11       2.369871967885e-12      -7.957787924850e-15 
   78       2.668325950300e-10       5.462611610888e-14      -1.145090985205e-12       0.000000000000e+00       2.126575575278e-11       2.308679709827e-12      -8.275522634920e-15 
   79       2.701268685549e-10       5.648818380196e-14      -1.212156314230e-12       0.000000000000e+00       2.061255833863e-11       2.250107125024e-12      -8.708924718015e-15 
   80       2.734507864373e-10       5.837049498041e-14      -1.280494597509e-12       0.000000000000e+00       1.998618185440e-11       2.194019909766e-12      -9.217596438148e-15 
   81       2.768041864537e-10       6.027128515593e-14      -1.350055051865e-12       0.000000000000e+00       1.938536907101e-11       2.140235998978e-12      -9.756478139518e-15 
   82       2.801865415348e-10       6.218868813155e-14      -1.420783941928e-12       0.000000000000e+00       1.880840318031e-11       2.088523615943e-12      -1.027569807065e-14 
   83       2.835969417165e-10       6.412073407790e-14      -1.492624547029e-12       0.000000000000e+00       1.825308923286e-11       2.038599322021e-12      -1.072042220852e-14 
   84       2.870345266220e-10       6.606549747464e-14      -1.565523025588e-12       0.000000000000e+00       1.771728791365e-11       1.990195242691e-12      -1.104275563855e-14 
   85       2.904999048223e-10       6.802157332821e-14      -1.639447197829e-12       0.000000000000e+00       1.720065920086e-11       1.943277822666e-12      -1.124004258065e-14 
   86       2.939939377782e-10       6.998767674079e-14      -1.714370830619e-12       0.000000000000e+00       1.670317507994e-11       1.897861928613e-12      -1.132266987736e-14 
   87       2.975172999078e-10       7.196250065051e-14      -1.790268081854e-12       0.000000000000e+00       1.622458376410e-11       1.853944121168e-12      -1.130263156559e-14 
   88       3.010704681093e-10       7.394471642637e-14      -1.867113566470e-12       0.000000000000e+00       1.576440041515e-11       1.811501867276e-12      -1.119358124794e-14 
   89       3.046537112844e-10       7.593297446322e-14      -1.944882422453e-12       0.000000000000e+00       1.532189786427e-11       1.770492752545e-12      -1.101088446394e-14 
   90       3.082670798615e-10       7.792590477668e-14      -2.023550376847e-12       0.000000000000e+00       1.489609733282e-11       1.730853693594e-12      -1.077167106139e-14 
   91       3.119103953187e-10       7.992211759811e-14      -2.103093811763e-12       0.000000000000e+00       1.448575915313e-11       1.692500150399e-12      -1.049488756763e-14 
   92       3.155832397072e-10       8.192020396958e-14      -2.183489830391e-12       0.000000000000e+00       1.408937348928e-11       1.655325338640e-12      -1.020134956086e-14 
   93       3.192851625353e-10       8.391869689804e-14      -2.264709446309e-12       0.000000000000e+00       1.370551881453e-11       1.619227669260e-12      -9.909914786796e-15 
   94       3.230163597707e-10       8.591594684259e-14      -2.346695836300e-12       0.000000000000e+00       1.333401917180e-11       1.584199498719e-12      -9.625230367535e-15 
   95       3.267770780649e-10       8.791022851335e-14      -2.429382923587e-12       0.000000000000e+00       1.297494461884e-11       1.550250332603e-12      -9.348231026574e-15 
   96       3.305673990985e-10       8.989977869650e-14      -2.512701935085e-12       0.000000000000e+00       1.262825480555e-11       1.517379392934e-12      -9.079853277664e-15 
   97       3.343872320882e-10       9.188279630777e-14      -2.596581373026e-12       0.000000000000e+00       1.229379474298e-11       1.485575217992e-12      -8.821034546215e-15 
   98       3.382363062934e-10       9.385744244605e-14      -2.680946986565e-12       0.000000000000e+00       1.197129057219e-11       1.454815262131e-12      -8.572712290699e-15 
   99       3.421141635235e-10       9.582184044689e-14      -2.765721743395e-12       0.000000000000e+00       1.166034533325e-11       1.425065495597e-12      -8.335823124055e-15 
  100       3.460201506443e-10       9.777407593611e-14      -2.850825801367e-12       0.000000000000e+00       1.136043473412e-11       1.396280004348e-12      -8.111301935093e-15 
  101       3.499534120849e-10       9.971219688332e-14      -2.936176480096e-12       0.000000000000e+00       1.107090291961e-11       1.368400589872e-12      -7.900081009895e-15 
  102       3.539128823449e-10       1.016342136555e-13      -3.021688232583e-12       0.000000000000e+00       1.079095824030e-11       1.341356369003e-12      -7.703089153224e-15 
  103       3.578972785008e-10       1.035380990704e-13      -3.107272616822e-12       0.000000000000e+00       1.051966902144e-11       1.315063373746e-12      -7.521250809925e-15 
  104       3.619053889657e-10       1.054218640500e-13      -3.192844107130e-12       0.000000000000e+00       1.025617493474e-11       1.289443956770e-12      -7.355228948849e-15 
  105       3.659370003306e-10       1.072837961024e-13      -3.278338483314e-12       0.000000000000e+00       1.000036274540e-11       1.264488855313e-12      -7.204616050668e-15 
  106       3.699920823391e-10       1.091222533052e-13      -3.363696884255e-12       0.000000000000e+00       9.752274385635e-12       1.240202804186e-12      -7.068631687597e-15 
  107       3.740704986291e-10       1.109355924562e-13      -3.448860225379e-12       0.000000000000e+00       9.511897664062e-12       1.216585298427e-12      -6.946365351983e-15 
