# dimensionless total lensed [l(l+1)/2pi] C_l's
# for l=2 to 2500, i.e. number of multipoles equal to 2499
#
# -> if you prefer output in CAMB/HealPix/LensPix units/order, set 'format' to 'camb' in input file
# -> if you don't want to see such a header, set 'headers' to 'no' in input file
# -> for CMB lensing (phi), these are C_l^phi-phi for the lensing potential.
#    Remember the conversion factors:
#    C_l^dd (deflection) = l(l+1) C_l^phi-phi
#    C_l^gg (shear/convergence) = 1/4 (l(l+1))^2 C_l^phi-phi
#
# 1:l     2:TT                     3:EE                     4:TE                     5:BB                     6:phiphi                 7:TPhi                   8:Ephi               
    2       2.023149252668e-10       8.363076030867e-15       4.306220038213e-13       2.219653139611e-19       7.505697165367e-09       7.193288024815e-10      -2.618151896103e-12 
    3       1.804848773469e-10       1.335150904735e-14       5.728831410241e-13       4.441200728639e-19       4.649668238579e-09       5.007846282052e-10      -2.254545099662e-12 
    4       1.630090589043e-10       1.444278299188e-14       5.998171981903e-13       7.406149331949e-19       3.251072619214e-09       3.755000903146e-10      -1.724966314571e-12 
    5       1.501049409682e-10       1.222405570716e-14       5.594008694636e-13       1.111685525537e-18       2.435961740452e-09       2.948372071919e-10      -1.202141975648e-12 
    6       1.408188787846e-10       8.544196338334e-15       4.862009306845e-13       1.557612331313e-18       1.907572788214e-09       2.388532244772e-10      -7.449750660715e-13 
    7       1.341971949026e-10       5.137422720934e-15       4.034229731273e-13       2.078712109727e-18       1.541226345604e-09       1.979862636773e-10      -3.800560851454e-13 
    8       1.295115748010e-10       2.878733610969e-15       3.249489794536e-13       2.675328366615e-18       1.275070510268e-09       1.670443869236e-10      -1.154392810356e-13 
    9       1.263471380305e-10       1.785225145859e-15       2.585808749776e-13       3.347821226957e-18       1.074902522019e-09       1.429726704751e-10       5.355610331964e-14 
   10       1.242526537782e-10       1.416961511945e-15       2.082044221439e-13       4.096557093571e-18       9.199982775127e-10       1.238662621068e-10       1.403622115429e-13 
   11       1.229784515030e-10       1.306741152644e-15       1.748092633657e-13       4.921898480143e-18       7.847251269170e-10       1.088226114776e-10       1.630537718611e-13 
   12       1.223916993992e-10       1.193708827682e-15       1.568995199666e-13       5.824194396934e-18       6.866332303488e-10       9.616131007143e-11       1.430475139705e-13 
   13       1.222657340205e-10       1.034431473271e-15       1.513675860479e-13       6.803771642721e-18       6.059490231155e-10       8.547445561176e-11       9.834402375294e-14 
   14       1.225292025654e-10       8.924000926745e-16       1.544992281907e-13       7.860927317750e-18       5.387007020503e-10       7.658271882559e-11       4.566231350816e-14 
   15       1.231062768779e-10       8.255319634529e-16       1.626432462094e-13       8.995922821340e-18       4.820111389713e-10       6.904814306951e-11      -3.054224446189e-15 
   16       1.239246627371e-10       8.372367674951e-16       1.728157548247e-13       1.020897953624e-17       4.337431384478e-10       6.259193612045e-11      -4.020741980480e-14 
   17       1.249837138396e-10       8.902238783228e-16       1.829796299979e-13       1.150027633250e-17       3.922802310635e-10       5.693364853303e-11      -6.256232766052e-14 
   18       1.262070105423e-10       9.431601275803e-16       1.918685462575e-13       1.286994807004e-17       3.562500373464e-10       5.198618630170e-11      -7.011836047199e-14 
   19       1.275858209308e-10       9.908496710449e-16       1.991835154560e-13       1.431809123670e-17       3.250871754280e-10       4.767895140925e-11      -6.530678372867e-14 
   20       1.290755264301e-10       1.042742108057e-15       2.049998313236e-13       1.584475732921e-17       2.976136016673e-10       4.381785665984e-11      -5.260768647812e-14 
   21       1.306740488450e-10       1.120002816264e-15       2.098225716883e-13       1.744997042794e-17       2.734062086882e-10       4.037549584270e-11      -3.611359022111e-14 
   22       1.323576083466e-10       1.246605542115e-15       2.143901553875e-13       1.913371941433e-17       2.518908645098e-10       3.732172595907e-11      -2.029045808970e-14 
   23       1.341281569164e-10       1.423606390077e-15       2.192688201696e-13       2.089597938791e-17       2.327774725884e-10       3.460867109696e-11      -7.785531666092e-15 
   24       1.359718977161e-10       1.642719174478e-15       2.249329969467e-13       2.273670383210e-17       2.156309835816e-10       3.215119403989e-11      -4.998019263096e-16 
   25       1.378899244502e-10       1.897507869430e-15       2.314361299798e-13       2.465585018518e-17       2.002531745560e-10       2.992683733765e-11       1.438842884783e-15 
   26       1.398700871612e-10       2.181816635005e-15       2.385968482331e-13       2.665337022855e-17       1.863686839249e-10       2.791283585709e-11      -1.148901402221e-15 
   27       1.419062290990e-10       2.495637258293e-15       2.460068475717e-13       2.872923282885e-17       1.738133069578e-10       2.609841919388e-11      -6.724285613350e-15 
   28       1.439837729716e-10       2.840122127250e-15       2.531104331914e-13       3.088341780750e-17       1.623730787442e-10       2.446221814215e-11      -1.333635343611e-14 
   29       1.461092525064e-10       3.213253377466e-15       2.594124262120e-13       3.311594373136e-17       1.519909753506e-10       2.298855117546e-11      -1.971602303994e-14 
   30       1.482825203635e-10       3.611204927948e-15       2.643443813012e-13       3.542685131586e-17       1.425569742388e-10       2.164596182817e-11      -2.458806946012e-14 
   31       1.504924181728e-10       4.030490894635e-15       2.673311197540e-13       3.781620364121e-17       1.338804895461e-10       2.039210686418e-11      -2.672792044766e-14 
   32       1.527448528775e-10       4.473640438273e-15       2.682317416495e-13       4.028410807764e-17       1.259176208863e-10       1.922524022403e-11      -2.619093611934e-14 
   33       1.550424309624e-10       4.945736703432e-15       2.670659755548e-13       4.283070815632e-17       1.186128829047e-10       1.814989163936e-11      -2.356139746398e-14 
   34       1.573800124155e-10       5.452236332463e-15       2.639155351914e-13       4.545617912267e-17       1.118650423476e-10       1.716338379990e-11      -1.960623971762e-14 
   35       1.597595436249e-10       5.996171025691e-15       2.589620181633e-13       4.816072014692e-17       1.056399914768e-10       1.625831465932e-11      -1.510901998434e-14 
   36       1.621785080450e-10       6.580018519527e-15       2.524708815508e-13       5.094456486569e-17       9.988815567203e-11       1.541953744178e-11      -1.100366548561e-14 
   37       1.646290023777e-10       7.206009489138e-15       2.447144410359e-13       5.380797102877e-17       9.453514846402e-11       1.462877041072e-11      -8.202820494986e-15 
   38       1.671114349026e-10       7.874616436620e-15       2.357236085665e-13       5.675116711889e-17       8.956743968743e-11       1.388542469555e-11      -6.810859781746e-15 
   39       1.696240221917e-10       8.585541597684e-15       2.254563330734e-13       5.977439195828e-17       8.496958902933e-11       1.319186614800e-11      -6.652904249243e-15 
   40       1.721582705780e-10       9.338086872537e-15       2.138629957697e-13       6.287791132083e-17       8.069818558623e-11       1.254747221507e-11      -7.478405800930e-15 
   41       1.747039213578e-10       1.013145342879e-14       2.008675643366e-13       6.606199208592e-17       7.669702583925e-11       1.194930685157e-11      -8.969006778749e-15 
   42       1.772673205381e-10       1.096582277596e-14       1.863057283834e-13       6.932681023977e-17       7.295445959034e-11       1.139509986781e-11      -1.077862005402e-14 
   43       1.798579101824e-10       1.184158212974e-14       1.699651887042e-13       7.267251596505e-17       6.946060235819e-11       1.088075408380e-11      -1.249699681088e-14 
   44       1.824828605896e-10       1.275902367156e-14       1.515998593764e-13       7.609925861448e-17       6.619011901578e-11       1.039924992521e-11      -1.363283338430e-14 
   45       1.851468130486e-10       1.371839795945e-14       1.309859247066e-13       7.960716050944e-17       6.311128980832e-11       9.942817356013e-12      -1.375043956096e-14 
   46       1.878516757300e-10       1.472010388273e-14       1.081148936834e-13       8.319622925180e-17       6.021933942765e-11       9.510746859566e-12      -1.293936360692e-14 
   47       1.905962908345e-10       1.576454778637e-14       8.305472486528e-14       8.686641901103e-17       5.751097942755e-11       9.103537639003e-12      -1.147730056647e-14 
   48       1.933761354814e-10       1.685208929334e-14       5.589793738189e-14       9.061765277045e-17       5.497435638618e-11       8.720626312696e-12      -9.704410328412e-15 
   49       1.961830432134e-10       1.798304010914e-14       2.676288011402e-14       9.444982071538e-17       5.258841469174e-11       8.360303690075e-12      -8.026830550229e-15 
   50       1.990083527927e-10       1.915763266928e-14      -4.231412455472e-15       9.836277483640e-17       5.032924875755e-11       8.020320235397e-12      -6.824472896495e-15 
   51       2.018540083093e-10       2.037591882234e-14      -3.705164331606e-14       1.023563147518e-16       4.819267071331e-11       7.700089287550e-12      -6.136756566443e-15 
   52       2.047239906764e-10       2.163784157909e-14      -7.168509456548e-14       1.064301952506e-16       4.617666699446e-11       7.398938021263e-12      -5.897642989693e-15 
   53       2.076210392494e-10       2.294326031337e-14      -1.081152387969e-13       1.105841279935e-16       4.427464332155e-11       7.115421418409e-12      -6.022929002371e-15 
   54       2.105465346150e-10       2.429194814743e-14      -1.463217128989e-13       1.148177797225e-16       4.247511640014e-11       6.847271452667e-12      -6.409255456633e-15 
   55       2.135011927897e-10       2.568359100341e-14      -1.862905313875e-13       1.191308080244e-16       4.076521867755e-11       6.592030841493e-12      -6.949775093308e-15 
   56       2.164876182795e-10       2.711779047156e-14      -2.280477575784e-13       1.235229831228e-16       3.914293846570e-11       6.349255079540e-12      -7.587985271834e-15 
   57       2.195081799521e-10       2.859405707482e-14      -2.716341511651e-13       1.279940932063e-16       3.760738051592e-11       6.118768430559e-12      -8.275531947849e-15 
   58       2.225641714622e-10       3.011180617096e-14      -3.170960261744e-13       1.325439092068e-16       3.615506310804e-11       5.900003669352e-12      -8.956387211474e-15 
   59       2.256557256543e-10       3.167035540283e-14      -3.644856237097e-13       1.371721844724e-16       3.477975831114e-11       5.691977937887e-12      -9.566506959034e-15 
   60       2.287817289661e-10       3.326892214869e-14      -4.138614846926e-13       1.418786544408e-16       3.347233224414e-11       5.493268601411e-12      -1.003348856479e-14 
   61       2.319407298244e-10       3.490668483265e-14      -4.652735574689e-13       1.466630936485e-16       3.222328173494e-11       5.302429472408e-12      -1.029649144187e-14 
   62       2.351340957470e-10       3.658298870580e-14      -5.187137711673e-13       1.515255024518e-16       3.103137102850e-11       5.119403276519e-12      -1.037199823783e-14 
   63       2.383634162177e-10       3.829718194059e-14      -5.741549789484e-13       1.564659618280e-16       2.989665904283e-11       4.944384828865e-12      -1.030227415383e-14 
   64       2.416295182380e-10       4.004855533334e-14      -6.315651347585e-13       1.614845812003e-16       2.881790132112e-11       4.777398672817e-12      -1.013670122104e-14 
   65       2.449324122685e-10       4.183634178081e-14      -6.909071817207e-13       1.665814999300e-16       2.779247584715e-11       4.618288908654e-12      -9.932078898542e-15 
   66       2.482712381709e-10       4.365971575672e-14      -7.521389405262e-13       1.717568888088e-16       2.681630886059e-11       4.466709022213e-12      -9.752924671151e-15 
   67       2.516442111493e-10       4.551779278824e-14      -8.152129978258e-13       1.770109515514e-16       2.588380067232e-11       4.322111713549e-12      -9.671774647349e-15 
   68       2.550494704423e-10       4.740953991299e-14      -8.800786688455e-13       1.823439235059e-16       2.498932004513e-11       4.183906292744e-12      -9.750971332395e-15 
   69       2.584879459280e-10       4.933348715129e-14      -9.466885965044e-13       1.877560641469e-16       2.413220477901e-11       4.051990637603e-12      -9.983069793214e-15 
   70       2.619609779247e-10       5.128795636156e-14      -1.014993295097e-12       1.932476657353e-16       2.331264576309e-11       3.926309247602e-12      -1.033884073947e-14 
   71       2.654694354189e-10       5.327114233706e-14      -1.084939136871e-12       1.988190573608e-16       2.253017460512e-11       3.806689433593e-12      -1.078454515641e-14 
   72       2.690136850951e-10       5.528111000569e-14      -1.156468293465e-12       2.044706063636e-16       2.178362956354e-11       3.692835432074e-12      -1.128176142895e-14 
   73       2.725935603661e-10       5.731579162983e-14      -1.229518677351e-12       2.102027197553e-16       2.107112147964e-11       3.584322519438e-12      -1.178721246579e-14 
   74       2.762083304023e-10       5.937298400609e-14      -1.304023883274e-12       2.160158456399e-16       2.038999970963e-11       3.480591126242e-12      -1.225259282351e-14 
   75       2.798566691618e-10       6.145034566515e-14      -1.379913129694e-12       2.219104746353e-16       1.973681805673e-11       3.380940951460e-12      -1.262439583066e-14 
   76       2.835372858766e-10       6.354556827056e-14      -1.457119707461e-12       2.278870733971e-16       1.910818921358e-11       3.284702998115e-12      -1.285624028679e-14 
   77       2.872510177040e-10       6.565693308891e-14      -1.535608233952e-12       2.339458680540e-16       1.850360327994e-11       3.191804908770e-12      -1.294882780073e-14 
   78       2.909990641863e-10       6.778285137876e-14      -1.615352285559e-12       2.400870236791e-16       1.792306370873e-11       3.102298507457e-12      -1.291699163778e-14 
   79       2.947823425242e-10       6.992169995329e-14      -1.696326445368e-12       2.463107087127e-16       1.736622880013e-11       3.016188822842e-12      -1.277792563943e-14 
   80       2.986014701701e-10       7.207182195218e-14      -1.778506419044e-12       2.526170949905e-16       1.683239585333e-11       2.933431850915e-12      -1.255126766142e-14 
   81       3.024567474215e-10       7.423152761357e-14      -1.861869150722e-12       2.590063577732e-16       1.632048531827e-11       2.853932317668e-12      -1.225918301170e-14 
   82       3.063481400151e-10       7.639909504590e-14      -1.946392938896e-12       2.654786757748e-16       1.582902494732e-11       2.777541441776e-12      -1.192644788846e-14 
   83       3.102752617198e-10       7.857277099981e-14      -2.032057552305e-12       2.720342311919e-16       1.535613394707e-11       2.704054697279e-12      -1.158053281813e-14 
   84       3.142376174932e-10       8.075071952264e-14      -2.118833281146e-12       2.786732122826e-16       1.489997920580e-11       2.633262428577e-12      -1.124630878531e-14 
   85       3.182354173933e-10       8.293085645077e-14      -2.206645751375e-12       2.853958215329e-16       1.446026559197e-11       2.565116237157e-12      -1.092897449737e-14 
   86       3.222688663097e-10       8.511098876724e-14      -2.295405462715e-12       2.922022689030e-16       1.403696480733e-11       2.499586204497e-12      -1.062843864196e-14 
   87       3.263379025625e-10       8.728886417722e-14      -2.385018265672e-12       2.990927694689e-16       1.362985748001e-11       2.436609163075e-12      -1.034443871464e-14 
   88       3.304421848752e-10       8.946217100397e-14      -2.475385291461e-12       3.060675434936e-16       1.323852525025e-11       2.376087347315e-12      -1.007653408194e-14 
   89       3.345810793470e-10       9.162853808479e-14      -2.566402881930e-12       3.131268164990e-16       1.286234285621e-11       2.317887044555e-12      -9.824099044463e-15 
   90       3.387536464264e-10       9.378553466704e-14      -2.657962519492e-12       3.202708193379e-16       1.250047021969e-11       2.261837245992e-12      -9.586315899951e-15 
   91       3.429586278831e-10       9.593067030405e-14      -2.749950757052e-12       3.274997882653e-16       1.215184453198e-11       2.207728297643e-12      -9.362168006382e-15 
   92       3.471944337816e-10       9.806139475117e-14      -2.842249147929e-12       3.348139650107e-16       1.181517233953e-11       2.155310551302e-12      -9.150432845044e-15 
   93       3.514595478825e-10       1.001751871440e-13      -2.934743567698e-12       3.422136714963e-16       1.148923578218e-11       2.104353482227e-12      -8.949945142848e-15 
   94       3.557538418916e-10       1.022698391021e-13      -3.027353935650e-12       3.496995466928e-16       1.117388118368e-11       2.054836143196e-12      -8.760446574916e-15 
   95       3.600774357079e-10       1.043432142095e-13      -3.120008854683e-12       3.572723456853e-16       1.086916520444e-11       2.006782993791e-12      -8.581851626299e-15 
   96       3.644302894208e-10       1.063931636334e-13      -3.212636675748e-12       3.649328692822e-16       1.057505038356e-11       1.960205473855e-12      -8.413985732975e-15 
   97       3.688121960260e-10       1.084175272455e-13      -3.305165556696e-12       3.726819651116e-16       1.029140153695e-11       1.915101484463e-12      -8.256582051994e-15 
   98       3.732227741428e-10       1.104141347432e-13      -3.397523521130e-12       3.805205287177e-16       1.001798215538e-11       1.871454868893e-12      -8.109278231619e-15 
   99       3.776614607300e-10       1.123808067715e-13      -3.489638517249e-12       3.884495046576e-16       9.754450802585e-12       1.829234893604e-12      -7.971613181464e-15 
  100       3.821275038026e-10       1.143153560445e-13      -3.581438476701e-12       3.964698875969e-16       9.500357513368e-12       1.788395729204e-12      -7.843023842634e-15 
  101       3.866199551481e-10       1.162155884669e-13      -3.672851373428e-12       4.045827234072e-16       9.255140191665e-12       1.748875931421e-12      -7.722841957871e-15 
  102       3.911376630435e-10       1.180793042553e-13      -3.763805282517e-12       4.127891102616e-16       9.018121008649e-12       1.710597922083e-12      -7.610290841688e-15 
  103       3.956792649711e-10       1.199042990601e-13      -3.854228439045e-12       4.210901997316e-16       8.788502800816e-12       1.673467470082e-12      -7.504482150512e-15 
  104       4.002434208400e-10       1.216884085821e-13      -3.944046868146e-12       4.294871042416e-16       8.565549355580e-12       1.637395656676e-12      -7.404544456162e-15 
  105       4.048295642153e-10       1.234296468711e-13      -4.033176783834e-12       4.379806028326e-16       8.349161762269e-12       1.602369268550e-12      -7.310035703436e-15 
  106       4.094372394630e-10       1.251260888870e-13      -4.121531268302e-12       4.465713975106e-16       8.139373565204e-12       1.568388990480e-12      -7.220580707525e-15 
  107       4.140658657227e-10       1.267758302536e-13      -4.209022640783e-12       4.552602034055e-16       7.936172266580e-12       1.535447501496e-12      -7.135742566151e-15 
