# dimensionless total lensed [l(l+1)/2pi] C_l's
# for l=2 to 2500, i.e. number of multipoles equal to 2499
#
# -> if you prefer output in CAMB/HealPix/LensPix units/order, set 'format' to 'camb' in input file
# -> if you don't want to see such a header, set 'headers' to 'no' in input file
# -> for CMB lensing (phi), these are C_l^phi-phi for the lensing potential.
#    Remember the conversion factors:
#    C_l^dd (deflection) = l(l+1) C_l^phi-phi
#    C_l^gg (shear/convergence) = 1/4 (l(l+1))^2 C_l^phi-phi
#
# 1:l     2:TT                     3:EE                     4:TE                     5:BB                     6:phiphi                 7:TPhi                   8:Ephi               
    2       1.114110439710e-10       5.849566033340e-15       5.667960510626e-13       2.691702524474e-19       1.165788739337e-08      -6.157733104727e-11      -2.366821708621e-12 
    3       1.092679171162e-10       1.066132901791e-14       6.634690755774e-13       5.386315730428e-19       7.068484940969e-09      -1.365591025585e-11      -2.110315576341e-12 
    4       1.069439866290e-10       1.376920835849e-14       6.752854587581e-13       8.983556951854e-19       4.886573963515e-09       2.933788384153e-12      -1.760121308824e-12 
    5       1.049783201455e-10       1.431841249377e-14       6.365385566168e-13       1.348702130686e-18       3.630890962401e-09       9.220562887882e-12      -1.398217367069e-12 
    6       1.035163232692e-10       1.262423715944e-14       5.702527018642e-13       1.890096615680e-18       2.824425214988e-09       1.155321753349e-11      -1.053737116206e-12 
    7       1.025720263072e-10       9.682693702722e-15       4.930863173286e-13       2.523016723890e-18       2.271241569328e-09       1.220651799708e-11      -7.448752132874e-13 
    8       1.021426889803e-10       6.567059032462e-15       4.153043023445e-13       3.247975912404e-18       1.872981720192e-09       1.209292861956e-11      -4.816027335553e-13 
    9       1.021069546894e-10       4.037391435778e-15       3.432931297193e-13       4.065506625687e-18       1.574922121788e-09       1.157490493262e-11      -2.686479743553e-13 
   10       1.024258786863e-10       2.403248460296e-15       2.808394195164e-13       4.976143119054e-18       1.344637903774e-09       1.085626162535e-11      -1.067742172338e-13 
   11       1.030549963856e-10       1.592481195768e-15       2.298722707103e-13       5.980404671816e-18       1.105986371504e-09       1.095341546960e-11       5.754205757021e-15 
   12       1.039257538351e-10       1.325457230668e-15       1.911903580511e-13       7.078779842486e-18       9.638564215739e-10       9.986241738548e-12       7.536869166730e-14 
   13       1.049598289156e-10       1.294598236036e-15       1.646885396741e-13       8.271712374427e-18       8.475633693393e-10       9.292427872807e-12       1.093823765711e-13 
   14       1.061707102803e-10       1.283122975279e-15       1.493132319630e-13       9.559589292054e-18       7.510949835301e-10       8.559689294113e-12       1.149702733456e-13 
   15       1.075040107170e-10       1.202586732023e-15       1.432830756629e-13       1.094273163772e-17       6.701250752078e-10       8.043557527332e-12       1.008021854600e-13 
   16       1.088989346451e-10       1.066203350510e-15       1.445462317877e-13       1.242138819150e-17       6.014625950698e-10       7.581948008795e-12       7.426209838357e-14 
   17       1.104078227826e-10       9.328853492762e-16       1.509314537376e-13       1.399573239462e-17       5.426994924933e-10       7.129507966319e-12       4.210225664487e-14 
   18       1.119799857109e-10       8.580446350988e-16       1.602577482664e-13       1.566586100323e-17       4.917983922370e-10       6.729438856683e-12       1.005705691297e-14 
   19       1.136183815465e-10       8.538186586631e-16       1.710053650118e-13       1.743180537317e-17       4.479454954442e-10       6.394816917992e-12      -1.830422514008e-14 
   20       1.153047271597e-10       9.107078103899e-16       1.815641654025e-13       1.929352090159e-17       4.093913197466e-10       6.117884927538e-12      -4.007368550217e-14 
   21       1.170352687515e-10       1.000069313709e-15       1.911548023652e-13       2.125091931050e-17       3.755090282266e-10       5.869950340571e-12      -5.415546562184e-14 
   22       1.187861669684e-10       1.084577758581e-15       1.992816144097e-13       2.330385604678e-17       3.454759129441e-10       5.611734596930e-12      -6.054063708728e-14 
   23       1.205767037849e-10       1.154680534746e-15       2.058670479633e-13       2.545216902241e-17       3.188653725960e-10       5.343745363151e-12      -6.005487014611e-14 
   24       1.224171838381e-10       1.212821560424e-15       2.110523088164e-13       2.769566595703e-17       2.950459036392e-10       5.080256354291e-12      -5.426775689674e-14 
   25       1.242943673370e-10       1.275356374572e-15       2.151586320636e-13       3.003417005270e-17       2.737285417688e-10       4.841662809268e-12      -4.486864829244e-14 
   26       1.261768823940e-10       1.363786659218e-15       2.186345954386e-13       3.246750432663e-17       2.545197021598e-10       4.644300557940e-12      -3.386340652957e-14 
   27       1.280747363696e-10       1.488324632003e-15       2.219078092512e-13       3.499553206634e-17       2.371830986306e-10       4.471460986612e-12      -2.282108167124e-14 
   28       1.300004911117e-10       1.654259949386e-15       2.254002945477e-13       3.761814708204e-17       2.214137629973e-10       4.296444794531e-12      -1.321332844066e-14 
   29       1.319588442183e-10       1.858728868737e-15       2.292938976409e-13       4.033532182490e-17       2.071276157667e-10       4.119170858299e-12      -5.772145575337e-15 
   30       1.339390888317e-10       2.094345013779e-15       2.336897306072e-13       4.314708048669e-17       1.941674817845e-10       3.947935379188e-12      -1.019166195530e-15 
   31       1.359211076171e-10       2.352930585882e-15       2.386283215109e-13       4.605349976235e-17       1.822643154507e-10       3.790292448856e-12       6.777020893190e-16 
   32       1.379100709572e-10       2.633635025221e-15       2.439309406281e-13       4.905474429133e-17       1.713546047626e-10       3.647630799014e-12      -3.255600490776e-16 
   33       1.399123741366e-10       2.937766810062e-15       2.492867554983e-13       5.215105584937e-17       1.613595205927e-10       3.518323507627e-12      -3.274666577903e-15 
   34       1.419289320976e-10       3.266255040537e-15       2.543216306870e-13       5.534274592869e-17       1.521370457182e-10       3.399701036018e-12      -7.262499973810e-15 
   35       1.439670340121e-10       3.618108160335e-15       2.587233378161e-13       5.863017754487e-17       1.436386598827e-10       3.290665899199e-12      -1.164745447119e-14 
   36       1.460311376155e-10       3.991365095222e-15       2.621509205416e-13       6.201378801597e-17       1.357947819397e-10       3.189785620637e-12      -1.575937820353e-14 
   37       1.481207937944e-10       4.384044082256e-15       2.642595436370e-13       6.549407001966e-17       1.285016799043e-10       3.094955588219e-12      -1.892100685041e-14 
   38       1.502369554539e-10       4.796146221531e-15       2.649144231926e-13       6.907146859531e-17       1.217398009533e-10       3.004956931948e-12      -2.093373486901e-14 
   39       1.523765874132e-10       5.228299607117e-15       2.640457974514e-13       7.274645790508e-17       1.154871128765e-10       2.918282688686e-12      -2.174881185901e-14 
   40       1.545301693089e-10       5.681234200459e-15       2.615926637763e-13       7.651957354289e-17       1.096831366148e-10       2.832639485106e-12      -2.133997303526e-14 
   41       1.566865020534e-10       6.156057323240e-15       2.575268817564e-13       8.039136336289e-17       1.042498848020e-10       2.745846992325e-12      -1.975191560090e-14 
   42       1.588505262109e-10       6.655166319306e-15       2.519329742528e-13       8.436221185446e-17       9.917092835281e-11       2.659040404349e-12      -1.725956900927e-14 
   43       1.610302418078e-10       7.181648172264e-15       2.449556661373e-13       8.843246479828e-17       9.443243012555e-11       2.574404074260e-12      -1.426427011661e-14 
   44       1.632315187525e-10       7.739065511329e-15       2.367811990418e-13       9.260247723927e-17       8.999942824517e-11       2.494301736261e-12      -1.125712529936e-14 
   45       1.654578489844e-10       8.330692546166e-15       2.275941760311e-13       9.687256162205e-17       8.582824872679e-11       2.420792136068e-12      -8.720002667349e-15 
   46       1.677101224106e-10       8.956886429602e-15       2.174270398650e-13       1.012428136488e-16       8.191212733999e-11       2.353996427288e-12      -6.780694360015e-15 
   47       1.699863452090e-10       9.616976269068e-15       2.062696880100e-13       1.057132344022e-16       7.824636921494e-11       2.293247609747e-12      -5.463697103091e-15 
   48       1.722813732355e-10       1.030996823415e-14       1.941109157044e-13       1.102837748285e-16       7.481459454569e-11       2.237510900464e-12      -4.784903876275e-15 
   49       1.745866546607e-10       1.103452716734e-14       1.809381983898e-13       1.149543327744e-16       7.158787024161e-11       2.185358563442e-12      -4.750907926568e-15 
   50       1.768936372339e-10       1.178934937669e-14       1.667218601680e-13       1.197247362971e-16       6.853339601314e-11       2.135300937856e-12      -5.332826288200e-15 
   51       1.792056774837e-10       1.257444297053e-14       1.513630178389e-13       1.245946951298e-16       6.564535674486e-11       2.086943846520e-12      -6.381008557866e-15 
   52       1.815289192668e-10       1.339016326819e-14       1.347311307789e-13       1.295638309199e-16       6.292094365669e-11       2.040101844621e-12      -7.685973725044e-15 
   53       1.838688287782e-10       1.423685201150e-14       1.166774501911e-13       1.346316862796e-16       6.035112301530e-11       1.994461271162e-12      -9.000017111314e-15 
   54       1.862301096406e-10       1.511483738407e-14       9.703406676153e-14       1.397977211771e-16       5.792021740603e-11       1.949571841028e-12      -1.003531530165e-14 
   55       1.886163802782e-10       1.602440993207e-14       7.565244465175e-14       1.450613695416e-16       5.561067358268e-11       1.905005638150e-12      -1.053433185686e-14 
   56       1.910293067040e-10       1.696574327747e-14       5.253241510104e-14       1.504222338163e-16       5.341971229579e-11       1.860899609319e-12      -1.050585754277e-14 
   57       1.934691055708e-10       1.793895374204e-14       2.772355949864e-14       1.558799324144e-16       5.134608120403e-11       1.817533110334e-12      -1.004428819964e-14 
   58       1.959346708908e-10       1.894412182066e-14       1.289103943182e-15       1.614340425030e-16       4.938501874463e-11       1.775170467632e-12      -9.263363198775e-15 
   59       1.984234798632e-10       1.998129126167e-14      -2.669349467281e-14       1.670840987398e-16       4.752803747979e-11       1.734059092478e-12      -8.297087287401e-15 
   60       2.009314987025e-10       2.105046814730e-14      -5.613196257842e-14       1.728295920100e-16       4.576270744304e-11       1.694427595161e-12      -7.300652433481e-15 
   61       2.034546975200e-10       2.215161837352e-14      -8.693875819907e-14       1.786700667527e-16       4.407610289692e-11       1.656461017696e-12      -6.419860998330e-15 
   62       2.059942053583e-10       2.328466150886e-14      -1.190961729031e-13       1.846054413283e-16       4.246653680797e-11       1.620224301857e-12      -5.689289617934e-15 
   63       2.085521504160e-10       2.444947391904e-14      -1.526048693006e-13       1.906357576466e-16       4.093408783187e-11       1.585718218146e-12      -5.112798914499e-15 
   64       2.111301108352e-10       2.564588929467e-14      -1.874650872678e-13       1.967610907500e-16       3.947707089765e-11       1.552898171336e-12      -4.692939069219e-15 
   65       2.137290715836e-10       2.687369768091e-14      -2.236766967359e-13       2.029815506783e-16       3.809193679131e-11       1.521671588655e-12      -4.430872238070e-15 
   66       2.163493813369e-10       2.813264450702e-14      -2.612392504799e-13       2.092972843340e-16       3.677317173951e-11       1.491895307965e-12      -4.326294967600e-15 
   67       2.189907093605e-10       2.942242961606e-14      -3.001520369074e-13       2.157084773465e-16       3.551319699319e-11       1.463372965940e-12      -4.377360610719e-15 
   68       2.216526092561e-10       3.074269951784e-14      -3.404154344362e-13       2.222153545779e-16       3.430439190688e-11       1.435897282848e-12      -4.577456645465e-15 
   69       2.243364392265e-10       3.209302449445e-14      -3.820351753039e-13       2.288181775899e-16       3.314586365517e-11       1.409392704428e-12      -4.904951776879e-15 
   70       2.270437552363e-10       3.347291509114e-14      -4.250190445199e-13       2.355172500110e-16       3.203787514934e-11       1.383797103823e-12      -5.331222407164e-15 
   71       2.297757114717e-10       3.488182735928e-14      -4.693757392544e-13       2.423129206481e-16       3.097979763071e-11       1.359018004980e-12      -5.823458727384e-15 
   72       2.325330327443e-10       3.631916171264e-14      -5.151149549158e-13       2.492055853168e-16       2.997006456371e-11       1.334931119081e-12      -6.344506695996e-15 
   73       2.353159868937e-10       3.778426178372e-14      -5.622474712283e-13       2.561956886713e-16       2.900612552886e-11       1.311378880974e-12      -6.852710017374e-15 
   74       2.381243571903e-10       3.927641327998e-14      -6.107852383095e-13       2.632837260345e-16       2.808440011575e-11       1.288168985608e-12      -7.301752120338e-15 
   75       2.409574147385e-10       4.079484284022e-14      -6.607414627480e-13       2.704702452280e-16       2.720023181609e-11       1.265072924455e-12      -7.640498136676e-15 
   76       2.438143815587e-10       4.233878039450e-14      -7.121245191554e-13       2.777557331034e-16       2.634904433636e-11       1.241893041325e-12      -7.826592273214e-15 
   77       2.466959783288e-10       4.390766190063e-14      -7.649182127671e-13       2.851402472009e-16       2.553015589086e-11       1.218681052037e-12      -7.870461843295e-15 
   78       2.496031100537e-10       4.550096167159e-14      -8.190980572951e-13       2.926237199342e-16       2.474357992787e-11       1.195556898988e-12      -7.799087770711e-15 
   79       2.525363831732e-10       4.711813230747e-14      -8.746370902735e-13       3.002060674062e-16       2.398886331196e-11       1.172643709285e-12      -7.643083104984e-15 
   80       2.554960880267e-10       4.875860485404e-14      -9.315058325218e-13       3.078871888737e-16       2.326506487357e-11       1.150067736222e-12      -7.436817065381e-15 
   81       2.584821813175e-10       5.042178896120e-14      -9.896722476096e-13       3.156669662142e-16       2.257073395865e-11       1.127958300756e-12      -7.218539084922e-15 
   82       2.614942685783e-10       5.210707304147e-14      -1.049101701320e-12       3.235452633910e-16       2.190388897821e-11       1.106447732985e-12      -7.030502854395e-15 
   83       2.645315866350e-10       5.381382442850e-14      -1.109756921113e-12       3.315219259193e-16       2.126199595790e-11       1.085671313622e-12      -6.919090366367e-15 
   84       2.675933809373e-10       5.554129246273e-14      -1.171599321993e-12       3.395967859723e-16       2.064258524832e-11       1.065741152931e-12      -6.923626068565e-15 
   85       2.706801478312e-10       5.728829894131e-14      -1.234593325437e-12       3.477696798422e-16       2.004526611081e-11       1.046662980274e-12      -7.040416971100e-15 
   86       2.737925670358e-10       5.905349640331e-14      -1.298702685461e-12       3.560404324075e-16       1.947000833187e-11       1.028405388593e-12      -7.252950861851e-15 
   87       2.769311143511e-10       6.083545918865e-14      -1.363889168565e-12       3.644088513179e-16       1.891652318980e-11       1.010924181236e-12      -7.542611096804e-15 
   88       2.800960507591e-10       6.263268196510e-14      -1.430112536163e-12       3.728747265541e-16       1.838425272966e-11       9.941618754047e-13      -7.888610561871e-15 
   89       2.832874115244e-10       6.444357825533e-14      -1.497330527009e-12       3.814378299891e-16       1.787235903830e-11       9.780472056055e-13      -8.267925634706e-15 
   90       2.865049952958e-10       6.626647896386e-14      -1.565498839629e-12       3.900979149481e-16       1.737971351932e-11       9.624946271008e-13      -8.655230146522e-15 
   91       2.897483532072e-10       6.809963090415e-14      -1.634571114747e-12       3.988547157697e-16       1.690488616804e-11       9.474038193589e-13      -9.022829343907e-15 
   92       2.930167779787e-10       6.994119532558e-14      -1.704498917714e-12       4.077079473662e-16       1.644613484651e-11       9.326591895048e-13      -9.340593850644e-15 
   93       2.963096051910e-10       7.178940386143e-14      -1.775235738191e-12       4.166574501875e-16       1.600181940322e-11       9.181566227177e-13      -9.582287168386e-15 
   94       2.996271926133e-10       7.364305640200e-14      -1.846749715473e-12       4.257036510073e-16       1.557173857393e-11       9.038894141680e-13      -9.745780218749e-15 
   95       3.029700687008e-10       7.550109572664e-14      -1.919012803474e-12       4.348471709495e-16       1.515597525697e-11       8.898744033166e-13      -9.835769118339e-15 
   96       3.063386270203e-10       7.736245743350e-14      -1.991996961069e-12       4.440886877951e-16       1.475448475649e-11       8.761257576434e-13      -9.857673967531e-15 
   97       3.097331196362e-10       7.922607062741e-14      -2.065674189674e-12       4.534289375389e-16       1.436708988923e-11       8.626548501127e-13      -9.817660575349e-15 
   98       3.131536504971e-10       8.109085860777e-14      -2.140016570812e-12       4.628687159462e-16       1.399347609129e-11       8.494701366379e-13      -9.722662184339e-15 
   99       3.166001688218e-10       8.295573955651e-14      -2.214996303692e-12       4.724088801090e-16       1.363318652489e-11       8.365770335465e-13      -9.580401195443e-15 
  100       3.200724624857e-10       8.481962722595e-14      -2.290585742778e-12       4.820503500027e-16       1.328561718509e-11       8.239777950450e-13      -9.399410892882e-15 
  101       3.235701514071e-10       8.668143162674e-14      -2.366757435363e-12       4.917941100426e-16       1.295001200659e-11       8.116713906838e-13      -9.189057169027e-15 
  102       3.270926809331e-10       8.854005971574e-14      -2.443484159140e-12       5.016412106404e-16       1.262545797046e-11       7.996533828223e-13      -8.959560249274e-15 
  103       3.306393152264e-10       9.039441608396e-14      -2.520738959779e-12       5.115927697607e-16       1.231088021092e-11       7.879158040936e-13      -8.722016416926e-15 
  104       3.342093513249e-10       9.224334915733e-14      -2.598490643950e-12       5.216498456738e-16       1.200528627548e-11       7.764500234083e-13      -8.486421116571e-15 
  105       3.378028084989e-10       9.408548004054e-14      -2.676689484105e-12       5.318130322845e-16       1.170854702332e-11       7.652560488117e-13      -8.255387334262e-15 
  106       3.414198201196e-10       9.591935172733e-14      -2.755279643679e-12       5.420828117856e-16       1.142071258357e-11       7.543342587168e-13      -8.029615213163e-15 
  107       3.450604171630e-10       9.774348161105e-14      -2.834203536973e-12       5.524596787195e-16       1.114177049257e-11       7.436824369733e-13      -7.809814665139e-15 
