# dimensionless total lensed [l(l+1)/2pi] C_l's
# for l=2 to 2500, i.e. number of multipoles equal to 2499
#
# -> if you prefer output in CAMB/HealPix/LensPix units/order, set 'format' to 'camb' in input file
# -> if you don't want to see such a header, set 'headers' to 'no' in input file
# -> for CMB lensing (phi), these are C_l^phi-phi for the lensing potential.
#    Remember the conversion factors:
#    C_l^dd (deflection) = l(l+1) C_l^phi-phi
#    C_l^gg (shear/convergence) = 1/4 (l(l+1))^2 C_l^phi-phi
#
# 1:l     2:TT                     3:EE                     4:TE                     5:BB                     6:phiphi                 7:TPhi                   8:Ephi               
    2       1.495051269785e-10       7.308380693222e-15       4.815629288739e-13       2.522253370906e-19       8.617630821842e-09       4.850699945119e-10      -2.515767697603e-12 
    3       1.409080408793e-10       1.238750556056e-14       6.069035061124e-13       5.046835209668e-19       5.401657731731e-09       3.466404394651e-10      -2.211460938037e-12 
    4       1.324408893518e-10       1.446580896569e-14       6.278236806711e-13       8.416484318468e-19       3.768940422992e-09       2.637180130955e-10      -1.764134091316e-12 
    5       1.257342531554e-10       1.338063174876e-14       5.879819563610e-13       1.263408006990e-18       2.816034991254e-09       2.091586729216e-10      -1.309603831867e-12 
    6       1.207927821664e-10       1.032637517492e-14       5.174283951053e-13       1.770303533099e-18       2.200654209571e-09       1.707494575899e-10      -8.949601926536e-13 
    7       1.173218382901e-10       6.845549784976e-15       4.365635336092e-13       2.362718322571e-18       1.774806901768e-09       1.423999525801e-10      -5.445173132988e-13 
    8       1.149988810285e-10       4.046623858589e-15       3.576919566649e-13       3.041065166031e-18       1.465818668251e-09       1.207417807093e-10      -2.690625776171e-13 
    9       1.135805557351e-10       2.340826666995e-15       2.880867416993e-13       3.805773057403e-18       1.233989729636e-09       1.037521725016e-10      -7.021046065744e-14 
   10       1.128529593951e-10       1.576542453557e-15       2.318022481148e-13       4.657273715106e-18       1.055295966135e-09       9.017422948066e-11       5.737470490877e-14 
   11       1.126746601542e-10       1.351539855170e-15       1.905722833803e-13       5.595988428954e-18       8.868502423898e-10       7.938985904674e-11       1.232785293645e-13 
   12       1.129402409675e-10       1.294979230354e-15       1.640703973965e-13       6.622315746856e-18       7.748870697637e-10       7.018187006027e-11       1.421472825827e-13 
   13       1.135263691007e-10       1.208537881338e-15       1.505283239371e-13       7.736620478985e-18       6.829843922349e-10       6.265101041634e-11       1.277437643876e-13 
   14       1.143348991051e-10       1.063900990669e-15       1.473950139559e-13       8.939224441318e-18       6.065234032770e-10       5.612015181927e-11       9.282886810229e-14 
   15       1.153727828907e-10       9.209065231322e-16       1.516570582687e-13       1.023039928751e-17       5.421673884680e-10       5.066366807528e-11       4.963900026020e-14 
   16       1.166036727839e-10       8.410569930272e-16       1.602701597883e-13       1.161036169093e-17       4.874528291546e-10       4.604216213139e-11       7.281021887285e-15 
   17       1.179397762608e-10       8.418228208237e-16       1.707570839375e-13       1.307927104112e-17       4.405189216238e-10       4.205380819319e-11      -2.788599823502e-14 
   18       1.193889418129e-10       8.957427533323e-16       1.812486533341e-13       1.463722848324e-17       3.997829258487e-10       3.850815660820e-11      -5.230426653260e-14 
   19       1.209590721116e-10       9.701276787264e-16       1.907647096535e-13       1.628428587180e-17       3.646013052636e-10       3.537703286037e-11      -6.508983335911e-14 
   20       1.225920110781e-10       1.031470775262e-15       1.985625631279e-13       1.802043748986e-17       3.336151252846e-10       3.261109512852e-11      -6.707255829331e-14 
   21       1.243001405952e-10       1.082670907765e-15       2.047210299300e-13       1.984564537672e-17       3.063376421595e-10       3.016665981774e-11      -6.039895911076e-14 
   22       1.260844174648e-10       1.141813855121e-15       2.096917500191e-13       2.175982943237e-17       2.821170939251e-10       2.796158416521e-11      -4.842667624299e-14 
   23       1.279335471315e-10       1.228298878139e-15       2.139226735137e-13       2.376289752060e-17       2.606205300687e-10       2.596344309437e-11      -3.409583169204e-14 
   24       1.298145013443e-10       1.360741961831e-15       2.179344304560e-13       2.585473552695e-17       2.413507969168e-10       2.413730645820e-11      -2.049378138740e-14 
   25       1.317445966592e-10       1.539571718808e-15       2.222207636760e-13       2.803524245300e-17       2.240813599556e-10       2.249325199998e-11      -9.461582656679e-15 
   26       1.337369902760e-10       1.757789688476e-15       2.272260019897e-13       3.030431824983e-17       2.084998469056e-10       2.103502878129e-11      -2.340540875425e-15 
   27       1.357727563985e-10       2.008973493727e-15       2.329721521730e-13       3.266189457056e-17       1.944193598616e-10       1.972995244772e-11       6.608500136045e-16 
   28       1.378159117192e-10       2.286701247329e-15       2.392775554148e-13       3.510792700532e-17       1.815971005343e-10       1.852703858719e-11      -8.803885660070e-17 
   29       1.398760915700e-10       2.590487253790e-15       2.458382776994e-13       3.764243049958e-17       1.699676052262e-10       1.742148348185e-11      -3.786300344841e-15 
   30       1.419675097211e-10       2.921576742687e-15       2.522176641925e-13       4.026545956853e-17       1.594060122347e-10       1.641404042714e-11      -9.207400360300e-15 
   31       1.440940015743e-10       3.280595372449e-15       2.579009428446e-13       4.297710820950e-17       1.496968951211e-10       1.549621124706e-11      -1.491051547032e-14 
   32       1.462584783318e-10       3.665430853569e-15       2.625162019645e-13       4.577753354551e-17       1.407901555494e-10       1.465904628830e-11      -2.001629498435e-14 
   33       1.484542858888e-10       4.072456985881e-15       2.656854766115e-13       4.866694949909e-17       1.326228550794e-10       1.388573295124e-11      -2.369440609806e-14 
   34       1.506686104220e-10       4.498522967429e-15       2.670417742206e-13       5.164562052644e-17       1.250807452901e-10       1.315547611764e-11      -2.518346590847e-14 
   35       1.529081560210e-10       4.946216936510e-15       2.665029546261e-13       5.471384309507e-17       1.181252592990e-10       1.246856561665e-11      -2.459303638094e-14 
   36       1.551807973168e-10       5.420509967783e-15       2.640955578275e-13       5.787196567270e-17       1.117006269521e-10       1.182920485294e-11      -2.239326115289e-14 
   37       1.574889978545e-10       5.926564348297e-15       2.598904436492e-13       6.112037364832e-17       1.057232649923e-10       1.123870325533e-11      -1.915801292446e-14 
   38       1.598331184548e-10       6.466706903984e-15       2.540189421991e-13       6.445940533644e-17       1.001777543757e-10       1.069590850506e-11      -1.536637651042e-14 
   39       1.622079682453e-10       7.042501901010e-15       2.466676472531e-13       6.788941356002e-17       9.504652163974e-11       1.019636764095e-11      -1.155074992018e-14 
   40       1.646010266943e-10       7.655562886469e-15       2.380784909748e-13       7.141079123356e-17       9.028064316569e-11       9.731802497322e-12      -8.359231163835e-15 
   41       1.669981578319e-10       8.307255413693e-15       2.284802757309e-13       7.502393273718e-17       8.581689601125e-11       9.292762533259e-12      -6.393533382348e-15 
   42       1.694046649871e-10       8.997686438615e-15       2.178482564248e-13       7.872909713190e-17       8.164216048890e-11       8.878389403193e-12      -5.642065221801e-15 
   43       1.718299173894e-10       9.726387612428e-15       2.060720401861e-13       8.252650446617e-17       7.774537960471e-11       8.489293733646e-12      -5.874346218246e-15 
   44       1.742812794739e-10       1.049256600158e-14       1.930192134880e-13       8.641637255751e-17       7.409823325839e-11       8.124744559428e-12      -6.789924721279e-15 
   45       1.767636951767e-10       1.129538886395e-14       1.785451069357e-13       9.039887967048e-17       7.066525980080e-11       7.783133747033e-12      -8.059017003607e-15 
   46       1.792788972232e-10       1.213498548930e-14       1.625291967444e-13       9.447404027272e-17       6.744106796839e-11       7.463805639278e-12      -9.469516426683e-15 
   47       1.818255250143e-10       1.301171167356e-14       1.448469685118e-13       9.864179139285e-17       6.442191187897e-11       7.165578922307e-12      -1.081627991513e-14 
   48       1.843990044028e-10       1.392586949072e-14       1.253586938685e-13       1.029020237876e-16       6.159446697232e-11       6.886135335289e-12      -1.185795374484e-14 
   49       1.869912819599e-10       1.487770530205e-14       1.039085427754e-13       1.072545793813e-16       5.893511763931e-11       6.621938117316e-12      -1.231507335617e-14 
   50       1.895940951321e-10       1.586741725731e-14       8.036766603403e-14       1.116992451846e-16       5.641707162635e-11       6.369258675164e-12      -1.195859378932e-14 
   51       1.922104456645e-10       1.689518481687e-14       5.477928868901e-14       1.162357390451e-16       5.403563255859e-11       6.127774323474e-12      -1.090821916362e-14 
   52       1.948457811715e-10       1.796114380197e-14       2.725146614166e-14       1.208637156031e-16       5.178855598069e-11       5.897806140935e-12      -9.411766773588e-15 
   53       1.975046344583e-10       1.906537609580e-14      -2.082290420880e-15       1.255827668124e-16       4.966848625550e-11       5.679267397974e-12      -7.764113510392e-15 
   54       2.001905241821e-10       2.020790809947e-14      -3.306183254151e-14       1.303924192145e-16       4.766261251201e-11       5.471634155228e-12      -6.309551233668e-15 
   55       2.029059584609e-10       2.138872783971e-14      -6.553933198316e-14       1.352921863229e-16       4.575657848841e-11       5.274180389940e-12      -5.361205790706e-15 
   56       2.056526743258e-10       2.260784480605e-14      -9.951019295929e-14       1.402817472625e-16       4.394813766220e-11       5.086819131816e-12      -4.930456391316e-15 
   57       2.084312837539e-10       2.386524227396e-14      -1.350125918497e-13       1.453608077331e-16       4.223628771338e-11       4.909418784281e-12      -4.934423815608e-15 
   58       2.112410826792e-10       2.516085915591e-14      -1.720905616039e-13       1.505290482201e-16       4.061713940077e-11       4.741538224375e-12      -5.272160681628e-15 
   59       2.140799556641e-10       2.649458918403e-14      -2.107943741130e-13       1.557861234154e-16       3.908373824615e-11       4.582407707501e-12      -5.823775530741e-15 
   60       2.169442805716e-10       2.786628009276e-14      -2.511809225820e-13       1.611316616387e-16       3.762588621837e-11       4.430909772176e-12      -6.449556913009e-15 
   61       2.198304398577e-10       2.927567595992e-14      -2.933020166102e-13       1.665653433383e-16       3.623297448235e-11       4.285882331970e-12      -7.018808387516e-15 
   62       2.227399665120e-10       3.072223095543e-14      -3.371653322530e-13       1.720871584943e-16       3.490362806538e-11       4.147150649925e-12      -7.505898379452e-15 
   63       2.256753892737e-10       3.220525214586e-14      -3.827653354182e-13       1.776972062279e-16       3.363791946715e-11       4.014694171189e-12      -7.914313534873e-15 
   64       2.286386844641e-10       3.372395007791e-14      -4.300945945757e-13       1.833956227119e-16       3.243446748776e-11       3.888336079228e-12      -8.248915717477e-15 
   65       2.316312316351e-10       3.527743615756e-14      -4.791437796086e-13       1.891825831000e-16       3.129035445065e-11       3.767734423328e-12      -8.516008798844e-15 
   66       2.346537692179e-10       3.686472002916e-14      -5.299016606648e-13       1.950583034578e-16       3.020104342550e-11       3.652373246104e-12      -8.723405448689e-15 
   67       2.377063501721e-10       3.848470695455e-14      -5.823551070087e-13       2.010230426927e-16       2.916029545117e-11       3.541553711006e-12      -8.880493925096e-15 
   68       2.407887976998e-10       4.013631665059e-14      -6.364891380116e-13       2.070770925723e-16       2.816183624320e-11       3.434590468334e-12      -8.997325676852e-15 
   69       2.439022787536e-10       4.181887362214e-14      -6.922870906911e-13       2.132207411189e-16       2.720493351378e-11       3.331466789689e-12      -9.081514172788e-15 
   70       2.470479711530e-10       4.353179157589e-14      -7.497304842120e-13       2.194543052312e-16       2.628980625176e-11       3.232296852004e-12      -9.140824791316e-15 
   71       2.502265607338e-10       4.527445943677e-14      -8.087989709327e-13       2.257781435357e-16       2.541593787855e-11       3.137128686009e-12      -9.184139408291e-15 
   72       2.534382097863e-10       4.704624183333e-14      -8.694703365898e-13       2.321926580123e-16       2.458203821490e-11       3.045940552795e-12      -9.221498144087e-15 
   73       2.566825254930e-10       4.884647958325e-14      -9.317205004831e-13       2.386982956198e-16       2.378600544764e-11       2.958637320397e-12      -9.264141110671e-15 
   74       2.599585283674e-10       5.067449017879e-14      -9.955235156605e-13       2.452955499211e-16       2.302488809651e-11       2.875046840360e-12      -9.324550158677e-15 
   75       2.632646206921e-10       5.252956827223e-14      -1.060851569103e-12       2.519849627092e-16       2.229484698090e-11       2.794916324314e-12      -9.416490624483e-15 
   76       2.665992327820e-10       5.441082580209e-14      -1.127671991065e-12       2.587670263130e-16       2.159210852286e-11       2.717979280082e-12      -9.551042578503e-15 
   77       2.699629675998e-10       5.631667764074e-14      -1.195937653075e-12       2.656418663560e-16       2.091610942482e-11       2.644178421507e-12      -9.723766760382e-15 
   78       2.733567916970e-10       5.824526259836e-14      -1.265594811164e-12       2.726095038311e-16       2.026685900460e-11       2.573477013129e-12      -9.925263262898e-15 
   79       2.767813747066e-10       6.019459270384e-14      -1.336585881222e-12       2.796699488844e-16       1.964398131326e-11       2.505789775409e-12      -1.014493457234e-14 
   80       2.802370716802e-10       6.216255040195e-14      -1.408849377848e-12       2.868232004031e-16       1.904669743008e-11       2.440980708193e-12      -1.037094507704e-14 
   81       2.837239054262e-10       6.414688575052e-14      -1.482319853211e-12       2.940692456050e-16       1.847380775742e-11       2.378860914154e-12      -1.059018057595e-14 
   82       2.872415488466e-10       6.614521361758e-14      -1.556927835901e-12       3.014080596269e-16       1.792367431574e-11       2.319186422255e-12      -1.078820778717e-14 
   83       2.907893072752e-10       6.815501087853e-14      -1.632599769787e-12       3.088396051140e-16       1.739420303844e-11       2.261656011197e-12      -1.094923385650e-14 
   84       2.943664876526e-10       7.017386593144e-14      -1.709266458578e-12       3.163638471850e-16       1.688335290880e-11       2.205982216903e-12      -1.105938074260e-14 
   85       2.979736150596e-10       7.220028090912e-14      -1.786890141945e-12       3.239808020797e-16       1.639079913151e-11       2.152122647892e-12      -1.111722076039e-14 
   86       3.016113864137e-10       7.423299793627e-14      -1.865441816810e-12       3.316904958598e-16       1.591651450034e-11       2.100083204800e-12      -1.112492148916e-14 
   87       3.052802905665e-10       7.627076005234e-14      -1.944893211334e-12       3.394929495992e-16       1.546025835056e-11       2.049847373235e-12      -1.108510118243e-14 
   88       3.089805971427e-10       7.831231264925e-14      -2.025216866725e-12       3.473881792311e-16       1.502156770837e-11       2.001375277224e-12      -1.100084398862e-14 
   89       3.127123453790e-10       8.035640490929e-14      -2.106386219044e-12       3.553761953955e-16       1.459974844034e-11       1.954602732639e-12      -1.087571517192e-14 
   90       3.164753329632e-10       8.240179124286e-14      -2.188375681017e-12       3.634570032863e-16       1.419386640276e-11       1.909440300640e-12      -1.071377633297e-14 
   91       3.202691048736e-10       8.444723272629e-14      -2.271160723842e-12       3.716306024989e-16       1.380273859115e-11       1.865772341111e-12      -1.051960062964e-14 
   92       3.240929422175e-10       8.649149853969e-14      -2.354717958996e-12       3.798969868772e-16       1.342492428957e-11       1.823456066097e-12      -1.029828799783e-14 
   93       3.279461187175e-10       8.853325732332e-14      -2.439017078871e-12       3.882562619630e-16       1.305906703380e-11       1.782357422359e-12      -1.005499504145e-14 
   94       3.318287385389e-10       9.057072943263e-14      -2.523995114436e-12       3.967090178820e-16       1.270499855667e-11       1.742466968365e-12      -9.793410763298e-15 
   95       3.357410044223e-10       9.260198479737e-14      -2.609578439166e-12       4.052560125184e-16       1.236278528489e-11       1.703799756204e-12      -9.517078658984e-15 
   96       3.396829538776e-10       9.462504827059e-14      -2.695690535702e-12       4.138980603523e-16       1.203238833832e-11       1.666359620213e-12      -9.229870064992e-15 
   97       3.436544516974e-10       9.663789955534e-14      -2.782251965902e-12       4.226360339209e-16       1.171365949497e-11       1.630138735968e-12      -8.935992717408e-15 
   98       3.476551824695e-10       9.863847313146e-14      -2.869180340901e-12       4.314708652805e-16       1.140633715593e-11       1.595117179266e-12      -8.639999310616e-15 
   99       3.516846430901e-10       1.006246581823e-13      -2.956390291168e-12       4.404035474678e-16       1.111004231039e-11       1.561262485106e-12      -8.346796056008e-15 
  100       3.557421352770e-10       1.025942985213e-13      -3.043793436557e-12       4.494351359618e-16       1.082427450063e-11       1.528529206680e-12      -8.061651240686e-15 
  101       3.598267580821e-10       1.045451925191e-13      -3.131298356365e-12       4.585667501451e-16       1.054840778695e-11       1.496858474350e-12      -7.790203786170e-15 
  102       3.639374004049e-10       1.064750930298e-13      -3.218810559391e-12       4.677995747660e-16       1.028168671266e-11       1.466177554637e-12      -7.538471807102e-15 
  103       3.680727335053e-10       1.083817073182e-13      -3.306232453987e-12       4.771348613995e-16       1.002322226909e-11       1.436399409202e-12      -7.312861169952e-15 
  104       3.722314939307e-10       1.102628056458e-13      -3.393469861261e-12       4.865737978424e-16       9.772193518175e-12       1.407442469491e-12      -7.118689054435e-15 
  105       3.764133919508e-10       1.121165638931e-13      -3.480452621221e-12       4.961170930568e-16       9.528492169986e-12       1.379293952792e-12      -6.955509059223e-15 
  106       3.806183124523e-10       1.139412673000e-13      -3.567116727350e-12       5.057653386222e-16       9.292157961149e-12       1.351954316891e-12      -6.821167602164e-15 
  107       3.848460312397e-10       1.157352070458e-13      -3.653398073490e-12       5.155191358057e-16       9.063179019071e-12       1.325417591966e-12      -6.713224858283e-15 
