# dimensionless total [l(l+1)/2pi] C_l's
# for l=2 to 3000, i.e. number of multipoles equal to 2999
#
# -> if you prefer output in CAMB/HealPix/LensPix units/order, set 'format' to 'camb' in input file
# -> if you don't want to see such a header, set 'headers' to 'no' in input file
# -> for CMB lensing (phi), these are C_l^phi-phi for the lensing potential.
#    Remember the conversion factors:
#    C_l^dd (deflection) = l(l+1) C_l^phi-phi
#    C_l^gg (shear/convergence) = 1/4 (l(l+1))^2 C_l^phi-phi
#
# 1:l     2:TT                     3:EE                     4:TE                     5:BB                     6:phiphi                 7:TPhi                   8:Ephi               
    2       1.114104527116e-10       5.849296863037e-15       5.667960570270e-13       0.000000000000e+00       1.165788739337e-08      -6.157733104727e-11      -2.366821708621e-12 
    3       1.092667379546e-10       1.066079038583e-14       6.634691020783e-13       0.000000000000e+00       7.068484940969e-09      -1.365591025585e-11      -2.110315576341e-12 
    4       1.069420287185e-10       1.376831000032e-14       6.752855346040e-13       0.000000000000e+00       4.886573963515e-09       2.933788384153e-12      -1.760121308824e-12 
    5       1.049753968364e-10       1.431706378319e-14       6.365387285522e-13       0.000000000000e+00       3.630890962401e-09       9.220562887882e-12      -1.398217367069e-12 
    6       1.035122529266e-10       1.262234703976e-14       5.702530379659e-13       0.000000000000e+00       2.824425214988e-09       1.155321753349e-11      -1.053737116206e-12 
    7       1.025666329867e-10       9.680170632297e-15       4.930869097602e-13       0.000000000000e+00       2.271241569328e-09       1.220651799708e-11      -7.448752132874e-13 
    8       1.021358029461e-10       6.563810945461e-15       4.153052694073e-13       0.000000000000e+00       1.872981720192e-09       1.209292861956e-11      -4.816027335553e-13 
    9       1.020984127638e-10       4.033325719519e-15       3.432946171742e-13       0.000000000000e+00       1.574922121788e-09       1.157490493262e-11      -2.686479743553e-13 
   10       1.024155244269e-10       2.398271949817e-15       2.808416011854e-13       0.000000000000e+00       1.344637903774e-09       1.085626162535e-11      -1.067742172338e-13 
   11       1.030426800915e-10       1.586500185660e-15       2.298753483992e-13       0.000000000000e+00       1.105986371504e-09       1.095341546960e-11       5.754205757021e-15 
   12       1.039113323906e-10       1.318377503660e-15       1.911945608673e-13       0.000000000000e+00       9.638564215739e-10       9.986241738548e-12       7.536869166730e-14 
   13       1.049431654850e-10       1.286325107249e-15       1.646941228399e-13       0.000000000000e+00       8.475633693393e-10       9.292427872807e-12       1.093823765711e-13 
   14       1.061516738728e-10       1.273561350552e-15       1.493204752492e-13       0.000000000000e+00       7.510949835301e-10       8.559689294113e-12       1.149702733456e-13 
   15       1.074824756452e-10       1.191641178231e-15       1.432922815807e-13       0.000000000000e+00       6.701250752078e-10       8.043557527332e-12       1.008021854600e-13 
   16       1.088747799032e-10       1.053778175413e-15       1.445577236889e-13       0.000000000000e+00       6.014625950698e-10       7.581948008795e-12       7.426209838357e-14 
   17       1.103809313736e-10       9.188846881060e-16       1.509455739739e-13       0.000000000000e+00       5.426994924933e-10       7.129507966319e-12       4.210225664487e-14 
   18       1.119502439391e-10       8.423725421885e-16       1.602748564722e-13       0.000000000000e+00       4.917983922370e-10       6.729438856683e-12       1.005705691297e-14 
   19       1.135856783881e-10       8.363791933387e-16       1.710258371100e-13       0.000000000000e+00       4.479454954442e-10       6.394816917992e-12      -1.830422514008e-14 
   20       1.152689535195e-10       8.914051345771e-16       1.815883922081e-13       0.000000000000e+00       4.093913197466e-10       6.117884927538e-12      -4.007368550217e-14 
   21       1.169963169887e-10       9.788077646629e-16       1.911831898001e-13       0.000000000000e+00       3.755090282266e-10       5.869950340571e-12      -5.415546562184e-14 
   22       1.187439302901e-10       1.061261935052e-15       1.993145832085e-13       0.000000000000e+00       3.454759129441e-10       5.611734596930e-12      -6.054063708728e-14 
   23       1.205310759754e-10       1.129215349484e-15       2.059050350083e-13       0.000000000000e+00       3.188653725960e-10       5.343745363151e-12      -6.005487014611e-14 
   24       1.223680588549e-10       1.185112306398e-15       2.110957679605e-13       0.000000000000e+00       2.950459036392e-10       5.080256354291e-12      -5.426775689674e-14 
   25       1.242416393164e-10       1.245308747375e-15       2.152080364675e-13       0.000000000000e+00       2.737285417688e-10       4.841662809268e-12      -4.486864829244e-14 
   26       1.261204454928e-10       1.331306797179e-15       2.186904393871e-13       0.000000000000e+00       2.545197021598e-10       4.644300557940e-12      -3.386340652957e-14 
   27       1.280144849765e-10       1.453319114973e-15       2.219706109927e-13       0.000000000000e+00       2.371830986306e-10       4.471460986612e-12      -2.282108167124e-14 
   28       1.299363199551e-10       1.616635808358e-15       2.254705986421e-13       0.000000000000e+00       2.214137629973e-10       4.296444794531e-12      -1.321332844066e-14 
   29       1.318906489504e-10       1.818393537274e-15       2.293722773278e-13       0.000000000000e+00       2.071276157667e-10       4.119170858299e-12      -5.772145575337e-15 
   30       1.338667663150e-10       2.051206316563e-15       2.337767903232e-13       0.000000000000e+00       1.941674817845e-10       3.947935379188e-12      -1.019166195530e-15 
   31       1.358445562214e-10       2.306896725166e-15       2.387246987964e-13       0.000000000000e+00       1.822643154507e-10       3.790292448856e-12       6.777020893190e-16 
   32       1.378291912872e-10       2.584614509916e-15       2.440373054420e-13       0.000000000000e+00       1.713546047626e-10       3.647630799014e-12      -3.255600490776e-16 
   33       1.398270695730e-10       2.885668411847e-15       2.494038113832e-13       0.000000000000e+00       1.613595205927e-10       3.518323507627e-12      -3.274666577903e-15 
   34       1.418391092727e-10       3.210987757987e-15       2.544501151384e-13       0.000000000000e+00       1.521370457182e-10       3.399701036018e-12      -7.262499973810e-15 
   35       1.438726032659e-10       3.559581179079e-15       2.588640171519e-13       0.000000000000e+00       1.436386598827e-10       3.290665899199e-12      -1.164745447119e-14 
   36       1.459320135498e-10       3.929487741140e-15       2.623045883455e-13       0.000000000000e+00       1.357947819397e-10       3.189785620637e-12      -1.575937820353e-14 
   37       1.480168956821e-10       4.318725797727e-15       2.644270177965e-13       0.000000000000e+00       1.285016799043e-10       3.094955588219e-12      -1.892100685041e-14 
   38       1.501282069582e-10       4.727296636437e-15       2.650965332838e-13       0.000000000000e+00       1.217398009533e-10       3.004956931948e-12      -2.093373486901e-14 
   39       1.522629168341e-10       5.155828539504e-15       2.642433782562e-13       0.000000000000e+00       1.154871128765e-10       2.918282688686e-12      -2.174881185901e-14 
   40       1.544115100568e-10       5.605051627690e-15       2.618065510287e-13       0.000000000000e+00       1.096831366148e-10       2.832639485106e-12      -2.133997303526e-14 
   41       1.565627927681e-10       6.076073411116e-15       2.577579045426e-13       0.000000000000e+00       1.042498848020e-10       2.745846992325e-12      -1.975191560090e-14 
   42       1.587217096029e-10       6.571291655557e-15       2.521819367391e-13       0.000000000000e+00       9.917092835281e-11       2.659040404349e-12      -1.725956900927e-14 
   43       1.608962644166e-10       7.093793856788e-15       2.452233360235e-13       0.000000000000e+00       9.443243012555e-11       2.574404074260e-12      -1.426427011661e-14 
   44       1.630923310611e-10       7.647143191936e-15       2.370682982967e-13       0.000000000000e+00       8.999942824517e-11       2.494301736261e-12      -1.125712529936e-14 
   45       1.653134051589e-10       8.234614534431e-15       2.279013705487e-13       0.000000000000e+00       8.582824872679e-11       2.420792136068e-12      -8.720002667349e-15 
   46       1.675603787680e-10       8.856566083135e-15       2.177549266584e-13       0.000000000000e+00       8.191212733999e-11       2.353996427288e-12      -6.780694360015e-15 
   47       1.698312595863e-10       9.512328188764e-15       2.066187832899e-13       0.000000000000e+00       7.824636921494e-11       2.293247609747e-12      -5.463697103091e-15 
   48       1.721209046913e-10       1.020090839473e-14       1.944816429659e-13       0.000000000000e+00       7.481459454569e-11       2.237510900464e-12      -4.784903876275e-15 
   49       1.744207631606e-10       1.092097305348e-14       1.813308759696e-13       0.000000000000e+00       7.158787024161e-11       2.185358563442e-12      -4.750907926568e-15 
   50       1.767222832427e-10       1.167122016781e-14       1.671366921816e-13       0.000000000000e+00       6.853339601314e-11       2.135300937856e-12      -5.332826288200e-15 
   51       1.790288212847e-10       1.245165987421e-14       1.518000975613e-13       0.000000000000e+00       6.564535674486e-11       2.086943846520e-12      -6.381008557866e-15 
   52       1.813465204523e-10       1.326264975498e-14       1.351904340457e-13       0.000000000000e+00       6.292094365669e-11       2.040101844621e-12      -7.685973725044e-15 
   53       1.836808457917e-10       1.410453401756e-14       1.171588248524e-13       0.000000000000e+00       6.035112301530e-11       1.994461271162e-12      -9.000017111314e-15 
   54       1.860364992988e-10       1.497764352147e-14       9.753722179029e-14       0.000000000000e+00       5.792021740603e-11       1.949571841028e-12      -1.003531530165e-14 
   55       1.884170977552e-10       1.588227163041e-14       7.617694737695e-14       0.000000000000e+00       5.561067358268e-11       1.905005638150e-12      -1.053433185686e-14 
   56       1.908243070808e-10       1.681859468211e-14       5.307771596337e-14       0.000000000000e+00       5.341971229579e-11       1.860899609319e-12      -1.050585754277e-14 
   57       1.932583441741e-10       1.778673180863e-14       2.828899551741e-14       0.000000000000e+00       5.134608120403e-11       1.817533110334e-12      -1.004428819964e-14 
   58       1.957181031830e-10       1.878676648516e-14       1.873894300084e-15       0.000000000000e+00       4.938501874463e-11       1.775170467632e-12      -9.263363198775e-15 
   59       1.982010613314e-10       1.981874561497e-14      -2.609025306442e-14       0.000000000000e+00       4.752803747979e-11       1.734059092478e-12      -8.297087287401e-15 
   60       2.007031847471e-10       2.088267861453e-14      -5.551129951862e-14       0.000000000000e+00       4.576270744304e-11       1.694427595161e-12      -7.300652433481e-15 
   61       2.032204440240e-10       2.197853468474e-14      -8.630182802356e-14       0.000000000000e+00       4.407610289692e-11       1.656461017696e-12      -6.419860998330e-15 
   62       2.057539714830e-10       2.310623597882e-14      -1.184442306665e-13       0.000000000000e+00       4.246653680797e-11       1.620224301857e-12      -5.689289617934e-15 
   63       2.083058996705e-10       2.426566127027e-14      -1.519392637452e-13       0.000000000000e+00       4.093408783187e-11       1.585718218146e-12      -5.112798914499e-15 
   64       2.108778115287e-10       2.545664667813e-14      -1.867872598085e-13       0.000000000000e+00       3.947707089765e-11       1.552898171336e-12      -4.692939069219e-15 
   65       2.134706972976e-10       2.667898469441e-14      -2.229881802494e-13       0.000000000000e+00       3.809193679131e-11       1.521671588655e-12      -4.430872238070e-15 
   66       2.160849114187e-10       2.793242321161e-14      -2.605416678972e-13       0.000000000000e+00       3.677317173951e-11       1.491895307965e-12      -4.326294967600e-15 
   67       2.187201294375e-10       2.921666455024e-14      -2.994470996109e-13       0.000000000000e+00       3.551319699319e-11       1.463372965940e-12      -4.377360610719e-15 
   68       2.213759115044e-10       3.053135757869e-14      -3.397049466934e-13       0.000000000000e+00       3.430439190688e-11       1.435897282848e-12      -4.577456645465e-15 
   69       2.240536218021e-10       3.187607439295e-14      -3.813210586730e-13       0.000000000000e+00       3.314586365517e-11       1.409392704428e-12      -4.904951776879e-15 
   70       2.267548224101e-10       3.325032714281e-14      -4.243033459972e-13       0.000000000000e+00       3.203787514934e-11       1.383797103823e-12      -5.331222407164e-15 
   71       2.294806740301e-10       3.465357339278e-14      -4.686606335092e-13       0.000000000000e+00       3.097979763071e-11       1.359018004980e-12      -5.823458727384e-15 
   72       2.322319084026e-10       3.608521497288e-14      -5.144027464894e-13       0.000000000000e+00       2.997006456371e-11       1.334931119081e-12      -6.344506695996e-15 
   73       2.350088007242e-10       3.754459682950e-14      -5.615405966958e-13       0.000000000000e+00       2.900612552886e-11       1.311378880974e-12      -6.852710017374e-15 
   74       2.378111420640e-10       3.903100587619e-14      -6.100862684048e-13       0.000000000000e+00       2.808440011575e-11       1.288168985608e-12      -7.301752120338e-15 
   75       2.406382117809e-10       4.054366984449e-14      -6.600531044527e-13       0.000000000000e+00       2.720023181609e-11       1.265072924455e-12      -7.640498136676e-15 
   76       2.434892395274e-10       4.208181980547e-14      -7.114496272718e-13       0.000000000000e+00       2.634904433636e-11       1.241893041325e-12      -7.826592273214e-15 
   77       2.463649495001e-10       4.364489343692e-14      -7.642598320257e-13       0.000000000000e+00       2.553015589086e-11       1.218681052037e-12      -7.870461843295e-15 
   78       2.492662489859e-10       4.523236690729e-14      -8.184594394552e-13       0.000000000000e+00       2.474357992787e-11       1.195556898988e-12      -7.799087770711e-15 
   79       2.521937464971e-10       4.684369464725e-14      -8.740217023515e-13       0.000000000000e+00       2.398886331196e-11       1.172643709285e-12      -7.643083104984e-15 
   80       2.551477342277e-10       4.847830950617e-14      -9.309173651789e-13       0.000000000000e+00       2.326506487357e-11       1.150067736222e-12      -7.436817065381e-15 
   81       2.581281705094e-10       5.013562290852e-14      -9.891146236970e-13       0.000000000000e+00       2.257073395865e-11       1.127958300756e-12      -7.218539084922e-15 
   82       2.611346622680e-10       5.181502501032e-14      -1.048579084583e-12       0.000000000000e+00       2.190388897821e-11       1.106447732985e-12      -7.030502854395e-15 
   83       2.641664474799e-10       5.351588485561e-14      -1.109273725056e-12       0.000000000000e+00       2.126199595790e-11       1.085671313622e-12      -6.919090366367e-15 
   84       2.672227726932e-10       5.523745355246e-14      -1.171160207600e-12       0.000000000000e+00       2.064258524832e-11       1.065741152931e-12      -6.923626068565e-15 
   85       2.703041359310e-10       5.697855501555e-14      -1.234203163019e-12       0.000000000000e+00       2.004526611081e-11       1.046662980274e-12      -7.040416971100e-15 
   86       2.734112186279e-10       5.873784400374e-14      -1.298366546696e-12       0.000000000000e+00       1.947000833187e-11       1.028405388593e-12      -7.252950861851e-15 
   87       2.765444981412e-10       6.051389709039e-14      -1.363612329273e-12       0.000000000000e+00       1.891652318980e-11       1.010924181236e-12      -7.542611096804e-15 
   88       2.797042368468e-10       6.230521118986e-14      -1.429900479049e-12       0.000000000000e+00       1.838425272966e-11       9.941618754047e-13      -7.888610561871e-15 
   89       2.828904712355e-10       6.411020208405e-14      -1.497188944381e-12       0.000000000000e+00       1.787235903830e-11       9.780472056055e-13      -8.267925634706e-15 
   90       2.861030010087e-10       6.592720294892e-14      -1.565433636075e-12       0.000000000000e+00       1.737971351932e-11       9.624946271008e-13      -8.655230146522e-15 
   91       2.893413781749e-10       6.775446288100e-14      -1.634588409788e-12       0.000000000000e+00       1.690488616804e-11       9.474038193589e-13      -9.022829343907e-15 
   92       2.926048961449e-10       6.959014542393e-14      -1.704605048426e-12       0.000000000000e+00       1.644613484651e-11       9.326591895048e-13      -9.340593850644e-15 
   93       2.958928922173e-10       7.143248399591e-14      -1.775437245751e-12       0.000000000000e+00       1.600181940322e-11       9.181566227177e-13      -9.582287168386e-15 
   94       2.992057307557e-10       7.328027811289e-14      -1.847053280813e-12       0.000000000000e+00       1.557173857393e-11       9.038894141680e-13      -9.745780218749e-15 
   95       3.025439484092e-10       7.513246942036e-14      -1.919425226078e-12       0.000000000000e+00       1.515597525697e-11       8.898744033166e-13      -9.835769118339e-15 
   96       3.059079473848e-10       7.698799211336e-14      -1.992525152887e-12       0.000000000000e+00       1.475448475649e-11       8.761257576434e-13      -9.857673967531e-15 
   97       3.092979888460e-10       7.884577361680e-14      -2.066325168775e-12       0.000000000000e+00       1.436708988923e-11       8.626548501127e-13      -9.817660575349e-15 
   98       3.127141863103e-10       8.070473526572e-14      -2.140797454792e-12       0.000000000000e+00       1.399347609129e-11       8.494701366379e-13      -9.722662184339e-15 
   99       3.161564990470e-10       8.256379298557e-14      -2.215914302827e-12       0.000000000000e+00       1.363318652489e-11       8.365770335465e-13      -9.580401195443e-15 
  100       3.196247254752e-10       8.442185797248e-14      -2.291648152927e-12       0.000000000000e+00       1.328561718509e-11       8.239777950450e-13      -9.399410892882e-15 
  101       3.231184965617e-10       8.627783737352e-14      -2.367971630620e-12       0.000000000000e+00       1.295001200659e-11       8.116713906838e-13      -9.189057169027e-15 
  102       3.266372692187e-10       8.813063496699e-14      -2.444857584235e-12       0.000000000000e+00       1.262545797046e-11       7.996533828223e-13      -8.959560249274e-15 
  103       3.301803197017e-10       8.997915184271e-14      -2.522279122222e-12       0.000000000000e+00       1.231088021092e-11       7.879158040936e-13      -8.722016416926e-15 
  104       3.337469562431e-10       9.182223264369e-14      -2.600205121101e-12       0.000000000000e+00       1.200528627548e-11       7.764500234083e-13      -8.486421116571e-15 
  105       3.373372038861e-10       9.365849455555e-14      -2.678585977823e-12       0.000000000000e+00       1.170854702332e-11       7.652560488117e-13      -8.255387334262e-15 
  106       3.409512002840e-10       9.548647637676e-14      -2.757365993374e-12       0.000000000000e+00       1.142071258357e-11       7.543342587168e-13      -8.029615213163e-15 
  107       3.445889805838e-10       9.730469097538e-14      -2.836487717986e-12       0.000000000000e+00       1.114177049257e-11       7.436824369733e-13      -7.809814665139e-15 
