# dimensionless total lensed [l(l+1)/2pi] C_l's
# for l=2 to 2500, i.e. number of multipoles equal to 2499
#
# -> if you prefer output in CAMB/HealPix/LensPix units/order, set 'format' to 'camb' in input file
# -> if you don't want to see such a header, set 'headers' to 'no' in input file
# -> for CMB lensing (phi), these are C_l^phi-phi for the lensing potential.
#    Remember the conversion factors:
#    C_l^dd (deflection) = l(l+1) C_l^phi-phi
#    C_l^gg (shear/convergence) = 1/4 (l(l+1))^2 C_l^phi-phi
#
# 1:l     2:TT                     3:EE                     4:TE                     5:BB                     6:phiphi                 7:TPhi                   8:Ephi               
    2       1.495051229153e-10       7.308367369707e-15       4.815629288958e-13       2.389018212814e-19       8.629684174921e-09       4.852350291342e-10      -2.515759502141e-12 
    3       1.409080327498e-10       1.238747891291e-14       6.069035062093e-13       4.780358590127e-19       5.411992604466e-09       3.468026425229e-10      -2.211454345838e-12 
    4       1.324408757961e-10       1.446576455159e-14       6.278236809475e-13       7.972342913604e-19       3.777106075826e-09       2.638671429431e-10      -1.764129242093e-12 
    5       1.257342328101e-10       1.338056512521e-14       5.879819569849e-13       1.196784297876e-18       2.822370917696e-09       2.092937931475e-10      -1.309600406328e-12 
    6       1.207927536645e-10       1.032628189810e-14       5.174283963182e-13       1.677026286314e-18       2.205521501038e-09       1.708714215300e-10      -8.949578177067e-13 
    7       1.173218002614e-10       6.845425410283e-15       4.365635357333e-13       2.238342609982e-18       1.778490275680e-09       1.425099669356e-10      -5.445156546909e-13 
    8       1.149988320998e-10       4.046463940658e-15       3.576919601057e-13       2.881145065442e-18       1.468562803116e-09       1.208411785152e-10      -2.690613731230e-13 
    9       1.135804945312e-10       2.340626759829e-15       2.880867469452e-13       3.605861664891e-18       1.236009124846e-09       1.038424507698e-10      -7.020952166836e-14 
   10       1.128528845409e-10       1.576298110727e-15       2.318022557313e-13       4.412923204722e-18       1.056762282628e-09       9.025665100158e-11       5.737550062548e-14 
   11       1.126745702757e-10       1.351246630081e-15       1.905722940018e-13       5.302750157775e-18       8.887914913889e-10       7.947270533137e-11       1.232792248764e-13 
   12       1.129401346947e-10       1.294632676592e-15       1.640704117129e-13       6.275740401354e-18       7.766155298227e-10       7.025933441967e-11       1.421479238847e-13 
   13       1.135262450698e-10       1.208133553068e-15       1.505283426785e-13       7.332258256851e-18       6.845328648796e-10       6.272357964215e-11       1.277443606480e-13 
   14       1.143347559619e-10       1.063434443098e-15       1.473950378730e-13       8.472625261244e-18       6.079179484199e-10       5.618808577938e-11       9.282942208474e-14 
   15       1.153726192930e-10       9.203733130150e-16       1.516570881122e-13       9.697113018119e-18       5.434290028193e-10       5.072719366262e-11       4.963954523287e-14 
   16       1.166034874053e-10       8.404526792088e-16       1.602701962859e-13       1.100593838912e-17       4.885987223923e-10       4.610154847641e-11       7.281513664029e-15 
   17       1.179395677933e-10       8.411429648024e-16       1.707571277705e-13       1.239926118947e-17       4.415632915480e-10       4.210943163001e-11      -2.788549343407e-14 
   18       1.193887089706e-10       8.949829198404e-16       1.812487051132e-13       1.387718322126e-17       4.007376458618e-10       3.856047874075e-11      -5.230379360770e-14 
   19       1.209588136330e-10       9.692834362811e-16       1.907647698967e-13       1.543975717985e-17       3.654765745183e-10       3.542650126200e-11      -6.508944534055e-14 
   20       1.225917257293e-10       1.030537696766e-15       1.985626322360e-13       1.708697839861e-17       3.344193007552e-10       3.265803417122e-11      -6.707225227940e-14 
   21       1.242998271719e-10       1.081644571000e-15       2.047211081684e-13       1.881881006248e-17       3.070783155997e-10       3.021128981568e-11      -6.039872255010e-14 
   22       1.260840747944e-10       1.140689843298e-15       2.096918374966e-13       2.063517334460e-17       2.828004728275e-10       2.800399180432e-11      -4.842649877015e-14 
   23       1.279331740745e-10       1.227072780319e-15       2.139227701683e-13       2.253597737869e-17       2.612522407747e-10       2.600370503349e-11      -3.409568156383e-14 
   24       1.298140967954e-10       1.359409373406e-15       2.179345360378e-13       2.452110934909e-17       2.419355539440e-10       2.417551263138e-11      -2.049360306903e-14 
   25       1.317441595475e-10       1.538128241822e-15       2.222208777383e-13       2.659046943766e-17       2.246234949409e-10       2.252952079819e-11      -9.461337788813e-15 
   26       1.337365195656e-10       1.756230932023e-15       2.272261238759e-13       2.874395869723e-17       2.090030851365e-10       2.106948745944e-11      -2.340222766515e-15 
   27       1.357722510878e-10       2.007295074207e-15       2.329722810105e-13       3.098150967689e-17       1.948870615017e-10       1.976268011614e-11       6.612351553647e-16 
   28       1.378153708403e-10       2.284898788760e-15       2.392776901060e-13       3.330307868079e-17       1.820321154039e-10       1.855804774451e-11      -8.760043121841e-17 
   29       1.398755141872e-10       2.588556387962e-15       2.458384169177e-13       3.570868105187e-17       1.703726737936e-10       1.745081268932e-11      -3.785827126836e-15 
   30       1.419668949295e-10       2.919513109417e-15       2.522178063753e-13       3.819837144710e-17       1.597836225948e-10       1.644178169908e-11      -9.206914889137e-15 
   31       1.440933484991e-10       3.278394619856e-15       2.579010861842e-13       4.077224374812e-17       1.500490680423e-10       1.552249977895e-11      -1.491004381055e-14 
   32       1.462577861261e-10       3.663088638242e-15       2.625163443983e-13       4.343045463847e-17       1.411188178306e-10       1.468401375468e-11      -2.001586373604e-14 
   33       1.484535537321e-10       4.069968973091e-15       2.656856158137e-13       4.617321727330e-17       1.329298012926e-10       1.390948099692e-11      -2.369404082142e-14 
   34       1.506678375181e-10       4.495884831382e-15       2.670419075908e-13       4.900079503619e-17       1.253675128382e-10       1.317806790933e-11      -2.518318862447e-14 
   35       1.529073415980e-10       4.943424360692e-15       2.665030792660e-13       5.191348313141e-17       1.183933056454e-10       1.249005362425e-11      -2.459285797712e-14 
   36       1.551799406247e-10       5.417558645231e-15       2.640956705252e-13       5.491162845672e-17       1.119512850640e-10       1.184963340780e-11      -2.239317676261e-14 
   37       1.574880981647e-10       5.923449981936e-15       2.598905408591e-13       5.799561458970e-17       1.059576741062e-10       1.125810647970e-11      -1.915800088072e-14 
   38       1.598321750620e-10       6.463425207344e-15       2.540190199937e-13       6.116577820029e-17       1.003970226310e-10       1.071432756257e-11      -1.536640576853e-14 
   39       1.622069804675e-10       7.039048598680e-15       2.466677012925e-13       6.442247033172e-17       9.525171838690e-11       1.021385436444e-11      -1.155078164420e-14 
   40       1.645999938712e-10       7.651933714453e-15       2.380785164839e-13       6.776608185731e-17       9.047272040585e-11       9.748417540510e-12      -8.359218014360e-15 
   41       1.669970793253e-10       8.303446119937e-15       2.284802674653e-13       7.119700503441e-17       8.599665239026e-11       9.308572508370e-12      -6.393425136752e-15 
   42       1.694035401863e-10       8.993692784087e-15       2.178482086011e-13       7.471549736216e-17       8.181036612745e-11       8.893461151840e-12      -5.641835922619e-15 
   43       1.718287457129e-10       9.722205371824e-15       2.060719464354e-13       7.832177743235e-17       7.790278088792e-11       8.503690130314e-12      -5.874006765961e-15 
   44       1.742800603699e-10       1.048819096389e-14       1.930190668175e-13       8.201606153597e-17       7.424550931268e-11       8.138520724081e-12      -6.789530126280e-15 
   45       1.767624281242e-10       1.129081683313e-14       1.785448996856e-13       8.579852652036e-17       7.080300358073e-11       7.796334962206e-12      -8.058659838204e-15 
   46       1.792775817394e-10       1.213021228529e-14       1.625289205331e-13       8.966918614674e-17       6.756985812743e-11       7.476471676904e-12      -9.469272985165e-15 
   47       1.818241606569e-10       1.300673313310e-14       1.448466141873e-13       9.362797702665e-17       6.454231509217e-11       7.177743379979e-12      -1.081619022924e-14 
   48       1.843975907725e-10       1.392068146804e-14       1.253582514610e-13       9.767478963572e-17       6.170701272775e-11       6.897822969557e-12      -1.185801418904e-14 
   49       1.869898187019e-10       1.487230366963e-14       1.039080014487e-13       1.018094657636e-16       5.904027117529e-11       6.633161999742e-12      -1.231522884696e-14 
   50       1.895925819386e-10       1.586179790650e-14       8.036701404720e-14       1.060317924858e-16       5.651522610733e-11       6.380020514709e-12      -1.195874523664e-14 
   51       1.922088822779e-10       1.688934365816e-14       5.477851339802e-14       1.103414880660e-16       5.412716942511e-11       6.138075712244e-12      -1.090828250036e-14 
   52       1.948441673868e-10       1.795507676554e-14       2.725055396920e-14       1.147382078194e-16       5.187385242526e-11       5.907651535235e-12      -9.411693705713e-15 
   53       1.975029701258e-10       1.905907913218e-14      -2.083354027416e-15       1.192215446065e-16       4.974790238188e-11       5.688663995539e-12      -7.763898155819e-15 
   54       2.001888092098e-10       2.020137718026e-14      -3.306306315296e-14       1.237910261199e-16       4.773647763288e-11       5.480591752562e-12      -6.309237092171e-15 
   55       2.029041928153e-10       2.138195895781e-14      -6.554074620220e-14       1.284461670802e-16       4.582518679342e-11       5.282711243444e-12      -5.360879633512e-15 
   56       2.056508580272e-10       2.260083397436e-14      -9.951180833544e-14       1.331866472272e-16       4.401177669678e-11       5.094937876915e-12      -4.930198346554e-15 
   57       2.084294168754e-10       2.385798552530e-14      -1.350144268700e-13       1.380121727922e-16       4.229524068853e-11       4.917142276125e-12      -4.934290955704e-15 
   58       2.112391653478e-10       2.515335254330e-14      -1.720926357113e-13       1.429224249001e-16       4.067167753223e-11       4.748885337580e-12      -5.272182881123e-15 
   59       2.140779880625e-10       2.648682878098e-14      -2.107967077248e-13       1.479170589951e-16       3.913411263059e-11       4.589399116924e-12      -5.823951132542e-15 
   60       2.169422629390e-10       2.785826199358e-14      -2.511835371073e-13       1.529957042659e-16       3.767231924670e-11       4.437567714733e-12      -6.449848203076e-15 
   61       2.198283724885e-10       2.926739627934e-14      -2.933049344396e-13       1.581580418586e-16       3.627565885786e-11       4.292230067490e-12      -7.019146360404e-15 
   62       2.227378497465e-10       3.071368582625e-14      -3.371685766537e-13       1.634040613273e-16       3.494275167862e-11       4.153210983124e-12      -7.506218246739e-15 
   63       2.256732234949e-10       3.219643771806e-14      -3.827689305020e-13       1.687338609891e-16       3.367366942288e-11       4.020488667175e-12      -7.914566082743e-15 
   64       2.286364700970e-10       3.371486251843e-14      -4.300985652915e-13       1.741475761041e-16       3.246702637329e-11       3.893884515033e-12      -8.249069897937e-15 
   65       2.316289691454e-10       3.526807165001e-14      -4.791481517348e-13       1.796453808011e-16       3.131989639727e-11       3.773054211535e-12      -8.516054430254e-15 
   66       2.346514591116e-10       3.685507477347e-14      -5.299064607997e-13       1.852274900029e-16       3.022772996295e-11       3.657478830555e-12      -8.723356025584e-15 
   67       2.377039929942e-10       3.847477716666e-14      -5.823603625597e-13       1.908941613516e-16       2.918427115519e-11       3.546455934600e-12      -8.880389537327e-15 
   68       2.407863940342e-10       4.012609856189e-14      -6.364948771964e-13       1.966456853143e-16       2.818322866885e-11       3.439296736629e-12      -8.997228775443e-15 
   69       2.438998292256e-10       4.180836347829e-14      -6.922933425756e-13       2.024823488677e-16       2.722386745736e-11       3.335983871540e-12      -9.081481948529e-15 
   70       2.470454764300e-10       4.352098563615e-14      -7.497372787172e-13       2.084044678800e-16       2.630640622909e-11       3.236631529812e-12      -9.140900376334e-15 
   71       2.502240215244e-10       4.526335397337e-14      -8.088063388283e-13       2.144123998737e-16       2.543032627692e-11       3.141287622802e-12      -9.184349845837e-15 
   72       2.534356268397e-10       4.703483313086e-14      -8.694783094868e-13       2.205065456495e-16       2.459433335299e-11       3.049930152480e-12      -9.221852281883e-15 
   73       2.566798995984e-10       4.883476393802e-14      -9.317291108262e-13       2.266873509086e-16       2.379631954344e-11       2.962463581149e-12      -9.264627417818e-15 
   74       2.599558603533e-10       5.066246389815e-14      -9.955327967188e-13       2.329553078763e-16       2.303332514311e-11       2.878715201179e-12      -9.325134466127e-15 
   75       2.632619114251e-10       5.251722767387e-14      -1.060861554961e-12       2.393109569251e-16       2.230150053033e-11       2.798431504730e-12      -9.417113789067e-15 
   76       2.665964831704e-10       5.439816721349e-14      -1.127682716636e-12       2.457547893248e-16       2.159706185423e-11       2.721345330793e-12      -9.551625232659e-15 
   77       2.699601786079e-10       5.630369739947e-14      -1.195949154197e-12       2.522869314319e-16       2.091944357108e-11       2.647399467343e-12      -9.724236979678e-15 
   78       2.733539643502e-10       5.823195705164e-14      -1.265607124630e-12       2.589074055921e-16       2.026865419318e-11       2.576557418083e-12      -9.925565375474e-15 
   79       2.767785100930e-10       6.018095820783e-14      -1.336599044780e-12       2.656162235062e-16       1.964431601684e-11       2.508734098762e-12      -1.014503124624e-14 
   80       2.802341709522e-10       6.214858332110e-14      -1.408863430207e-12       2.724133858262e-16       1.904564737609e-11       2.443793658249e-12      -1.037081947801e-14 
   81       2.837209698017e-10       6.413258245678e-14      -1.482334834042e-12       2.792988817505e-16       1.847144489630e-11       2.381547299607e-12      -1.058983859559e-14 
   82       2.872385796111e-10       6.613057048967e-14      -1.556943785839e-12       2.862726886201e-16       1.792006574787e-11       2.321751101164e-12      -1.078768034159e-14 
   83       2.907863057831e-10       6.814002430115e-14      -1.632616730436e-12       2.933347715137e-16       1.738940989989e-11       2.264103837587e-12      -1.094857925534e-14 
   84       2.943634553278e-10       7.015853229405e-14      -1.709284472465e-12       3.004850981638e-16       1.687743054657e-11       2.208318017082e-12      -1.105868030045e-14 
   85       2.979705533923e-10       7.218459660337e-14      -1.786909252335e-12       3.077236874293e-16       1.638380148348e-11       2.154351296761e-12      -1.111655269377e-14 
   86       3.016082969605e-10       7.421695935450e-14      -1.865462067639e-12       3.150505681546e-16       1.590849489514e-11       2.102209614461e-12      -1.112435304052e-14 
   87       3.052771749515e-10       7.625436358645e-14      -1.944914647182e-12       3.224657644194e-16       1.545126902002e-11       2.051876449167e-12      -1.108468720846e-14 
   88       3.089774570582e-10       7.829555468953e-14      -2.025239532789e-12       3.299692953920e-16       1.501165928104e-11       2.003311872613e-12      -1.100062550430e-14 
   89       3.127091825871e-10       8.033928184319e-14      -2.106410161111e-12       3.375611751824e-16       1.458896941615e-11       1.956451600877e-12      -1.087571785015e-14 
   90       3.164721492967e-10       8.238429945379e-14      -2.188400945434e-12       3.452414126954e-16       1.418226260878e-11       1.911206045978e-12      -1.071400895992e-14 
   91       3.202659022369e-10       8.442936859233e-14      -2.271187357485e-12       3.530100114840e-16       1.379035261839e-11       1.867459367470e-12      -1.052005351577e-14 
   92       3.240897225881e-10       8.647325843225e-14      -2.354746009238e-12       3.608669696021e-16       1.341179491099e-11       1.825068524043e-12      -1.029893134455e-14 
   93       3.279428841422e-10       8.851463760500e-14      -2.439046593487e-12       3.688123965522e-16       1.304522941693e-11       1.783899167929e-12      -1.005578165416e-14 
   94       3.318254911143e-10       9.055172645236e-14      -2.524026141301e-12       3.768468845659e-16       1.269048703829e-11       1.743941563484e-12      -9.794292647563e-15 
   95       3.357377462886e-10       9.258259488774e-14      -2.609611026121e-12       3.849711931522e-16       1.234763393583e-11       1.705210430386e-12      -9.518011749304e-15 
   96       3.396796872175e-10       9.460526774596e-14      -2.695724730486e-12       3.931861384197e-16       1.201663074142e-11       1.667709217510e-12      -9.230814764726e-15 
   97       3.436511787343e-10       9.661772470993e-14      -2.782287816082e-12       4.014925945374e-16       1.169732851526e-11       1.631429660257e-12      -8.936914454596e-15 
   98       3.476519054661e-10       9.861790023733e-14      -2.869217893794e-12       4.098914951948e-16       1.138946470315e-11       1.596351337884e-12      -8.640869109750e-15 
   99       3.516813643468e-10       1.006036834873e-13      -2.956429593764e-12       4.183838350630e-16       1.109265909371e-11       1.562441230840e-12      -8.347591125741e-15 
  100       3.557388571300e-10       1.025729182472e-13      -3.043834535445e-12       4.269706712544e-16       1.080640977567e-11       1.529653278093e-12      -8.062355577482e-15 
  101       3.598234829021e-10       1.045234028592e-13      -3.131341297649e-12       4.356531247839e-16       1.053008909507e-11       1.497927934468e-12      -7.790808793891e-15 
  102       3.639341305951e-10       1.064528901470e-13      -3.218855388608e-12       4.444323820287e-16       1.026293961254e-11       1.467191727971e-12      -7.538976932537e-15 
  103       3.680694714996e-10       1.083590873425e-13      -3.306279216022e-12       4.533096961897e-16       1.000407006057e-11       1.437356817128e-12      -7.313274554280e-15 
  104       3.722282421961e-10       1.102397646735e-13      -3.393518600322e-12       4.622862571983e-16       9.752657395740e-12       1.408341004470e-12      -7.119026413482e-15 
  105       3.764101530035e-10       1.120930979892e-13      -3.480503380980e-12       4.713627782814e-16       9.508592748031e-12       1.380131809441e-12      -6.955786943261e-15 
  106       3.806150888619e-10       1.139173724975e-13      -3.567169550936e-12       4.805398560101e-16       9.271915599256e-12       1.352730265838e-12      -6.821401543105e-15 
  107       3.848428256292e-10       1.157108793439e-13      -3.653453003426e-12       4.898180968804e-16       9.042613723528e-12       1.326131023318e-12      -6.713429232565e-15 
