# dimensionless total [l(l+1)/2pi] C_l's
# for l=2 to 3000, i.e. number of multipoles equal to 2999
#
# -> if you prefer output in CAMB/HealPix/LensPix units/order, set 'format' to 'camb' in input file
# -> if you don't want to see such a header, set 'headers' to 'no' in input file
# -> for CMB lensing (phi), these are C_l^phi-phi for the lensing potential.
#    Remember the conversion factors:
#    C_l^dd (deflection) = l(l+1) C_l^phi-phi
#    C_l^gg (shear/convergence) = 1/4 (l(l+1))^2 C_l^phi-phi
#
# 1:l     2:TT                     3:EE                     4:TE                     5:BB                     6:phiphi                 7:TPhi                   8:Ephi               
    2       1.495046355521e-10       7.308128467853e-15       4.815629340867e-13       0.000000000000e+00       8.604096085089e-09       4.847081455605e-10      -2.515700893605e-12 
    3       1.409070602092e-10       1.238700087673e-14       6.069035292983e-13       0.000000000000e+00       5.392539468321e-09       3.463613763733e-10      -2.211412106922e-12 
    4       1.324392596980e-10       1.446496731572e-14       6.278237471222e-13       0.000000000000e+00       3.762249373582e-09       2.634950579406e-10      -1.764105187916e-12 
    5       1.257318175383e-10       1.337936833552e-14       5.879821072611e-13       0.000000000000e+00       2.810775959784e-09       2.089751959107e-10      -1.309589486558e-12 
    6       1.207893869326e-10       1.032460485718e-14       5.174286906987e-13       0.000000000000e+00       2.196344682418e-09       1.705953707666e-10      -8.949557157812e-13 
    7       1.173173336010e-10       6.843187033826e-15       4.365640558901e-13       0.000000000000e+00       1.771188588179e-09       1.422686240159e-10      -5.445190897926e-13 
    8       1.149931212624e-10       4.043582726110e-15       3.576928115355e-13       0.000000000000e+00       1.462731062473e-09       1.206285568211e-10      -2.690679377632e-13 
    9       1.135733997961e-10       2.337020768247e-15       2.880880605703e-13       0.000000000000e+00       1.231319329811e-09       1.036536300899e-10      -7.021750295946e-14 
   10       1.128442709265e-10       1.571884962352e-15       2.318041889417e-13       0.000000000000e+00       1.052959350359e-09       9.008774553555e-11       5.736726168738e-14 
   11       1.126643076535e-10       1.345943513685e-15       1.905750311566e-13       0.000000000000e+00       8.851979256448e-10       7.931770273860e-11       1.232731228018e-13 
   12       1.129280978082e-10       1.288356372207e-15       1.640741641403e-13       0.000000000000e+00       7.734485940289e-10       7.011802945454e-11       1.421428171926e-13 
   13       1.135123134650e-10       1.200800467287e-15       1.505333482327e-13       0.000000000000e+00       6.817224235179e-10       6.259422150338e-11       1.277400582640e-13 
   14       1.143188138361e-10       1.054960655713e-15       1.474015601210e-13       0.000000000000e+00       6.054087070426e-10       5.606947379669e-11       9.282560143544e-14 
   15       1.153545552748e-10       9.106746334226e-16       1.516654152364e-13       0.000000000000e+00       5.411771281186e-10       5.061818749137e-11       4.963609912721e-14 
   16       1.165831942764e-10       8.294447107151e-16       1.602806397936e-13       0.000000000000e+00       4.865684113524e-10       4.600124991225e-11       7.278615162676e-15 
   17       1.179169421671e-10       8.287411747340e-16       1.707700211049e-13       0.000000000000e+00       4.397255151740e-10       4.201681829508e-11      -2.788845549512e-14 
   18       1.193636509359e-10       8.811027141864e-16       1.812644022093e-13       0.000000000000e+00       3.990685127076e-10       3.847468325656e-11      -5.230642243841e-14 
   19       1.209312264164e-10       9.538402308084e-16       1.907836440488e-13       0.000000000000e+00       3.639547761103e-10       3.534669970054e-11      -6.509141242885e-14 
   20       1.225615152887e-10       1.013446997748e-15       1.985850745987e-13       0.000000000000e+00       3.330284257581e-10       3.258353142970e-11      -6.707384514108e-14 
   21       1.242669019026e-10       1.062822038222e-15       2.047475271225e-13       0.000000000000e+00       3.058036228780e-10       3.014152011475e-11      -6.040016427504e-14 
   22       1.260483451575e-10       1.120051364009e-15       2.097226575802e-13       0.000000000000e+00       2.816296670343e-10       2.793859607033e-11      -4.842773189014e-14 
   23       1.278945523789e-10       1.204534519238e-15       2.139584319064e-13       0.000000000000e+00       2.601742634080e-10       2.594237779727e-11      -3.409669461787e-14 
   24       1.297724969005e-10       1.334887833895e-15       2.179754953300e-13       0.000000000000e+00       2.409412954970e-10       2.411798719994e-11      -2.049452330659e-14 
   25       1.316994967680e-10       1.511540296143e-15       2.222676060947e-13       0.000000000000e+00       2.237047162628e-10       2.247549592824e-11      -9.462268985581e-15 
   26       1.336887104782e-10       1.727493865548e-15       2.272791081985e-13       0.000000000000e+00       2.081527839724e-10       2.101864817904e-11      -2.341192584365e-15 
   27       1.357212135266e-10       1.976326600903e-15       2.330320239284e-13       0.000000000000e+00       1.940989363858e-10       1.971479110389e-11       6.602174895527e-16 
   28       1.377610238316e-10       2.251617075788e-15       2.393447098842e-13       0.000000000000e+00       1.813008013599e-10       1.851299024963e-11      -8.867159768553e-17 
   29       1.398177781601e-10       2.552880040613e-15       2.459132473551e-13       0.000000000000e+00       1.696930544307e-10       1.740845075826e-11      -3.786945428956e-15 
   30       1.419056917331e-10       2.881361183009e-15       2.523009966112e-13       0.000000000000e+00       1.591511029256e-10       1.640193098721e-11      -9.208056527957e-15 
   31       1.440286014305e-10       3.237686631658e-15       2.579932000405e-13       0.000000000000e+00       1.494599598891e-10       1.548494625061e-11      -1.491116831708e-14 
   32       1.461894202729e-10       3.619744542082e-15       2.626179581986e-13       0.000000000000e+00       1.405696338820e-10       1.464855581244e-11      -2.001693240823e-14 
   33       1.483814961459e-10       4.023909152668e-15       2.657973171140e-13       0.000000000000e+00       1.324173089274e-10       1.387596122925e-11      -2.369502435028e-14 
   34       1.505920173587e-10       4.447030100702e-15       2.671642933289e-13       0.000000000000e+00       1.248889534526e-10       1.314638477956e-11      -2.518406945847e-14 
   35       1.528276903933e-10       4.891695966237e-15       2.666367506451e-13       0.000000000000e+00       1.179460775540e-10       1.246011519656e-11      -2.459362934367e-14 
   36       1.550963924908e-10       5.362878262058e-15       2.642412298457e-13       0.000000000000e+00       1.115330192691e-10       1.182135114768e-11      -2.239384418591e-14 
   37       1.574005899689e-10       5.865739726935e-15       2.600485874614e-13       0.000000000000e+00       1.055663550140e-10       1.123139907603e-11      -1.915858096037e-14 
   38       1.597406464257e-10       6.402607722821e-15       2.541901406310e-13       0.000000000000e+00       1.000307027689e-10       1.068910337778e-11      -1.536691196855e-14 
   39       1.621113739075e-10       6.975047085906e-15       2.468524638695e-13       0.000000000000e+00       9.490853103367e-11       1.019000927577e-11      -1.155121870474e-14 
   40       1.645002550066e-10       7.584671946937e-15       2.382774649504e-13       0.000000000000e+00       9.015101606573e-11       9.725839081454e-12      -8.359579641605e-15 
   41       1.668931569646e-10       8.232848497671e-15       2.286939147960e-13       0.000000000000e+00       8.569506023259e-11       9.287145486484e-12      -6.393696484460e-15 
   42       1.692953859697e-10       8.919684529413e-15       2.180770239171e-13       0.000000000000e+00       8.152757249444e-11       8.873077182681e-12      -5.642012694655e-15 
   43       1.717163140834e-10       9.644712627907e-15       2.063163456321e-13       0.000000000000e+00       7.763751855101e-11       8.484255294313e-12      -5.874102849213e-15 
   44       1.741633086756e-10       1.040714085685e-14       1.932794043075e-13       0.000000000000e+00       7.399663140562e-11       8.119962825774e-12      -6.789580927487e-15 
   45       1.766413165654e-10       1.120613758474e-14       1.788214598285e-13       0.000000000000e+00       7.056951489511e-11       7.778605627114e-12      -8.058718230518e-15 
   46       1.791520727724e-10       1.204183349118e-14       1.628219089096e-13       0.000000000000e+00       6.735078948049e-11       7.459529884552e-12      -9.469380014878e-15 
   47       1.816942187925e-10       1.291458592797e-14       1.451561483367e-13       0.000000000000e+00       6.433671767901e-11       7.161552903418e-12      -1.081636383019e-14 
   48       1.842631825207e-10       1.382469865102e-14       1.256843511819e-13       0.000000000000e+00       6.151399988984e-11       6.882355212116e-12      -1.185824457116e-14 
   49       1.868509125164e-10       1.477241983418e-14       1.042505787240e-13       0.000000000000e+00       5.885906323801e-11       6.618399028948e-12      -1.231547363297e-14 
   50       1.894491480953e-10       1.575794959106e-14       8.072586559943e-14       0.000000000000e+00       5.634516384890e-11       6.365954325629e-12      -1.195893484313e-14 
   51       1.920608925433e-10       1.678146955478e-14       5.515332284910e-14       0.000000000000e+00       5.396761628109e-11       6.124694515142e-12      -1.090836011496e-14 
   52       1.946915948367e-10       1.784311789428e-14       2.764088635329e-14       0.000000000000e+00       5.172418306111e-11       5.894935837604e-12      -9.411629623436e-15 
   53       1.973457890174e-10       1.894297900603e-14      -1.678060758236e-15       0.000000000000e+00       4.960752447773e-11       5.676586354214e-12      -7.763694676215e-15 
   54       2.000269948496e-10       2.008108197545e-14      -3.264350685731e-14       0.000000000000e+00       4.760485511685e-11       5.469116536276e-12      -6.308933658467e-15 
   55       2.027377215814e-10       2.125741761568e-14      -6.510776369090e-14       0.000000000000e+00       4.570184657289e-11       5.271796201429e-12      -5.360548118354e-15 
   56       2.054797079150e-10       2.247199806574e-14      -9.906635958947e-14       0.000000000000e+00       4.389625776472e-11       5.084541627156e-12      -4.929905356475e-15 
   57       2.082535676422e-10       2.372480930279e-14      -1.345575938914e-13       0.000000000000e+00       4.218708907660e-11       4.907227362813e-12      -4.934085347580e-15 
   58       2.110585985097e-10       2.501579306470e-14      -1.716256267912e-13       0.000000000000e+00       4.057045869302e-11       4.739419700441e-12      -5.272092508278e-15 
   59       2.138926868931e-10       2.634484603516e-14      -2.103208617184e-13       0.000000000000e+00       3.903942456897e-11       4.580357640948e-12      -5.823979439567e-15 
   60       2.167522124699e-10       2.771181902887e-14      -2.507003277174e-13       0.000000000000e+00       3.758380640022e-11       4.428933860293e-12      -6.449970669381e-15 
   61       2.196335597761e-10       2.911645916267e-14      -2.928159700443e-13       0.000000000000e+00       3.619301371482e-11       4.283995222498e-12      -7.019313897746e-15 
   62       2.225382650052e-10       3.055822304413e-14      -3.366755855861e-13       0.000000000000e+00       3.486567469773e-11       4.145366201904e-12      -7.506383624942e-15 
   63       2.254688605625e-10       3.203642001438e-14      -3.822737576107e-13       0.000000000000e+00       3.360186257835e-11       4.013022448625e-12      -7.914692251229e-15 
   64       2.284273266609e-10       3.355026288998e-14      -4.296031725448e-13       0.000000000000e+00       3.240019921517e-11       3.886782793810e-12      -8.249131730809e-15 
   65       2.314150469799e-10       3.509886533915e-14      -4.786546186896e-13       0.000000000000e+00       3.125777244805e-11       3.766300354812e-12      -8.516040545539e-15 
   66       2.344327643242e-10       3.668123925784e-14      -5.294169849376e-13       0.000000000000e+00       3.017005345042e-11       3.651053640343e-12      -8.723270678646e-15 
   67       2.374805362824e-10       3.829629214590e-14      -5.818772594882e-13       0.000000000000e+00       2.913081408158e-11       3.540337655642e-12      -8.880254588443e-15 
   68       2.405581908579e-10       3.994294582848e-14      -6.360205843476e-13       0.000000000000e+00       2.813379089860e-11       3.433461666812e-12      -8.997081183885e-15 
   69       2.436668996851e-10       4.162052641984e-14      -6.918304345210e-13       0.000000000000e+00       2.717825346644e-11       3.330408909208e-12      -9.081356627766e-15 
   70       2.468078453960e-10       4.332844902589e-14      -7.492884729897e-13       0.000000000000e+00       2.626442104613e-11       3.231295188450e-12      -9.140824841498e-15 
   71       2.499817188649e-10       4.506610386133e-14      -8.083744982810e-13       0.000000000000e+00       2.539177847003e-11       3.136170503957e-12      -9.184343105015e-15 
   72       2.531886876541e-10       4.683285672921e-14      -8.690664446107e-13       0.000000000000e+00       2.455903816567e-11       3.045015439510e-12      -9.221923685265e-15 
   73       2.564283644590e-10       4.862804950054e-14      -9.313403820263e-13       0.000000000000e+00       2.376410217960e-11       2.957737553815e-12      -9.264775464703e-15 
   74       2.596997755547e-10       5.045100059386e-14      -9.951705165497e-13       0.000000000000e+00       2.300402420126e-11       2.874167771065e-12      -9.325345569785e-15 
   75       2.630013292411e-10       5.230100545488e-14      -1.060529190320e-12       0.000000000000e+00       2.227497158678e-11       2.794056771504e-12      -9.417360999462e-15 
   76       2.663314616585e-10       5.417717676661e-14      -1.127383895579e-12       0.000000000000e+00       2.157317714612e-11       2.717141257775e-12      -9.551870556217e-15 
   77       2.696907799479e-10       5.607793037970e-14      -1.195687687674e-12       0.000000000000e+00       2.089807882774e-11       2.643364683552e-12      -9.724445340641e-15 
   78       2.730802543944e-10       5.800140607483e-14      -1.265387015959e-12       0.000000000000e+00       2.024968623558e-11       2.572690405224e-12      -9.925708991866e-15 
   79       2.765005583493e-10       5.994561675438e-14      -1.336424494753e-12       0.000000000000e+00       1.962762426359e-11       2.505033235563e-12      -1.014509058693e-14 
   80       2.799520505664e-10       6.190844563552e-14      -1.408738842255e-12       0.000000000000e+00       1.903111541540e-11       2.440257267144e-12      -1.037078425225e-14 
   81       2.834347575372e-10       6.388764344344e-14      -1.482264819447e-12       0.000000000000e+00       1.845896212417e-11       2.378173695769e-12      -1.058970877505e-14 
   82       2.869483558269e-10       6.588082560439e-14      -1.556933169006e-12       0.000000000000e+00       1.790952907226e-11       2.318538643888e-12      -1.078746721484e-14 
   83       2.904921544102e-10       6.788546943891e-14      -1.632670554215e-12       0.000000000000e+00       1.738072551100e-11       2.261050984023e-12      -1.094830651489e-14 
   84       2.940654638597e-10       6.989916370864e-14      -1.709407993629e-12       0.000000000000e+00       1.687051365699e-11       2.205423196205e-12      -1.105838220827e-14 
   85       2.976688129269e-10       7.192041093803e-14      -1.787107905495e-12       0.000000000000e+00       1.637856944654e-11       2.151612204700e-12      -1.111626285514e-14 
   86       3.013029021956e-10       7.394795357279e-14      -1.865741455564e-12       0.000000000000e+00       1.590486596338e-11       2.099622996398e-12      -1.112410106496e-14 
   87       3.049682241632e-10       7.598053486531e-14      -1.945280540446e-12       0.000000000000e+00       1.544916313263e-11       2.049438054127e-12      -1.108449816923e-14 
   88       3.086650520784e-10       7.801690030903e-14      -2.025697869308e-12       0.000000000000e+00       1.501099888215e-11       2.001016407528e-12      -1.100051938068e-14 
   89       3.123934287778e-10       8.005579907284e-14      -2.106967045569e-12       0.000000000000e+00       1.458968030396e-11       1.954292683945e-12      -1.087570895261e-14 
   90       3.161531555246e-10       8.209598543541e-14      -2.189062648590e-12       0.000000000000e+00       1.418427481555e-11       1.909176159308e-12      -1.071410533815e-14 
   91       3.199437808450e-10       8.413622021964e-14      -2.271960315377e-12       0.000000000000e+00       1.379360132131e-11       1.865549809021e-12      -1.052025634945e-14 
   92       3.237645893661e-10       8.617527222700e-14      -2.355636822271e-12       0.000000000000e+00       1.341622137384e-11       1.823269358841e-12      -1.029923431706e-14 
   93       3.276148587422e-10       8.821180922558e-14      -2.440062013472e-12       0.000000000000e+00       1.305078064547e-11       1.782199518617e-12      -1.005617183921e-14 
   94       3.314946988809e-10       9.024404904396e-14      -2.525173020531e-12       0.000000000000e+00       1.269711128842e-11       1.742330978771e-12      -9.794756232388e-15 
   95       3.354043188856e-10       9.227005840971e-14      -2.610896298472e-12       0.000000000000e+00       1.235527979936e-11       1.703679337152e-12      -9.518535620388e-15 
   96       3.393437628305e-10       9.428785863942e-14      -2.697155403665e-12       0.000000000000e+00       1.202524750603e-11       1.666249051217e-12      -9.231386631966e-15 
   97       3.433129022787e-10       9.629542555699e-14      -2.783870963600e-12       0.000000000000e+00       1.170686653721e-11       1.630032999318e-12      -8.937522979321e-15 
   98       3.473114287992e-10       9.829068941198e-14      -2.870960646669e-12       0.000000000000e+00       1.139987579277e-11       1.595012041990e-12      -8.641504036574e-15 
   99       3.513388464846e-10       1.002715347979e-13      -2.958339131942e-12       0.000000000000e+00       1.110389691366e-11       1.561154583237e-12      -8.348243418260e-15 
  100       3.553944644684e-10       1.022358005703e-13      -3.045918078947e-12       0.000000000000e+00       1.081843025196e-11       1.528416131823e-12      -8.063017557812e-15 
  101       3.594773894426e-10       1.041812797656e-13      -3.133606097442e-12       0.000000000000e+00       1.054285084087e-11       1.496738862557e-12      -7.791474286044e-15 
  102       3.635865181754e-10       1.061057195188e-13      -3.221308717201e-12       0.000000000000e+00       1.027640436473e-11       1.466051177581e-12      -7.539641409637e-15 
  103       3.677205300279e-10       1.080068209821e-13      -3.308928357785e-12       0.000000000000e+00       1.001820312906e-11       1.436267267658e-12      -7.313935289630e-15 
  104       3.718781692529e-10       1.098823479561e-13      -3.396370852783e-12       0.000000000000e+00       9.767427411926e-12       1.407306634662e-12      -7.119682255062e-15 
  105       3.760591514335e-10       1.117304696718e-13      -3.483566091337e-12       0.000000000000e+00       9.523969175169e-12       1.379156607414e-12      -6.956436892377e-15 
  106       3.802633661113e-10       1.135494643767e-13      -3.570450121622e-12       0.000000000000e+00       9.287868200952e-12       1.351817492253e-12      -6.822044373758e-15 
  107       3.844905936941e-10       1.153376158565e-13      -3.656958886688e-12       0.000000000000e+00       9.059112723787e-12       1.325283149246e-12      -6.714063476457e-15 
