# dimensionless total [l(l+1)/2pi] C_l's
# for l=2 to 3000, i.e. number of multipoles equal to 2999
#
# -> if you prefer output in CAMB/HealPix/LensPix units/order, set 'format' to 'camb' in input file
# -> if you don't want to see such a header, set 'headers' to 'no' in input file
# -> for CMB lensing (phi), these are C_l^phi-phi for the lensing potential.
#    Remember the conversion factors:
#    C_l^dd (deflection) = l(l+1) C_l^phi-phi
#    C_l^gg (shear/convergence) = 1/4 (l(l+1))^2 C_l^phi-phi
#
# 1:l     2:TT                     3:EE                     4:TE                     5:BB                     6:phiphi                 7:TPhi                   8:Ephi               
    2       1.495046355521e-10       7.308128467853e-15       4.815629340867e-13       0.000000000000e+00       8.629684174921e-09       4.852350291342e-10      -2.515759502141e-12 
    3       1.409070602092e-10       1.238700087673e-14       6.069035292983e-13       0.000000000000e+00       5.411992604466e-09       3.468026425229e-10      -2.211454345838e-12 
    4       1.324392596980e-10       1.446496731572e-14       6.278237471222e-13       0.000000000000e+00       3.777106075826e-09       2.638671429431e-10      -1.764129242093e-12 
    5       1.257318175383e-10       1.337936833552e-14       5.879821072611e-13       0.000000000000e+00       2.822370917696e-09       2.092937931475e-10      -1.309600406328e-12 
    6       1.207893869326e-10       1.032460485718e-14       5.174286906987e-13       0.000000000000e+00       2.205521501038e-09       1.708714215300e-10      -8.949578177067e-13 
    7       1.173173336010e-10       6.843187033826e-15       4.365640558901e-13       0.000000000000e+00       1.778490275680e-09       1.425099669356e-10      -5.445156546909e-13 
    8       1.149931212624e-10       4.043582726110e-15       3.576928115355e-13       0.000000000000e+00       1.468562803116e-09       1.208411785152e-10      -2.690613731230e-13 
    9       1.135733997961e-10       2.337020768247e-15       2.880880605703e-13       0.000000000000e+00       1.236009124846e-09       1.038424507698e-10      -7.020952166836e-14 
   10       1.128442709265e-10       1.571884962352e-15       2.318041889417e-13       0.000000000000e+00       1.056762282628e-09       9.025665100158e-11       5.737550062548e-14 
   11       1.126643076535e-10       1.345943513685e-15       1.905750311566e-13       0.000000000000e+00       8.887914913890e-10       7.947270533137e-11       1.232792248764e-13 
   12       1.129280978082e-10       1.288356372207e-15       1.640741641403e-13       0.000000000000e+00       7.766155298227e-10       7.025933441967e-11       1.421479238847e-13 
   13       1.135123134650e-10       1.200800467287e-15       1.505333482327e-13       0.000000000000e+00       6.845328648797e-10       6.272357964215e-11       1.277443606480e-13 
   14       1.143188138361e-10       1.054960655713e-15       1.474015601210e-13       0.000000000000e+00       6.079179484199e-10       5.618808577938e-11       9.282942208474e-14 
   15       1.153545552748e-10       9.106746334226e-16       1.516654152364e-13       0.000000000000e+00       5.434290028193e-10       5.072719366262e-11       4.963954523287e-14 
   16       1.165831942764e-10       8.294447107151e-16       1.602806397936e-13       0.000000000000e+00       4.885987223923e-10       4.610154847641e-11       7.281513664029e-15 
   17       1.179169421671e-10       8.287411747340e-16       1.707700211049e-13       0.000000000000e+00       4.415632915480e-10       4.210943163001e-11      -2.788549343407e-14 
   18       1.193636509359e-10       8.811027141864e-16       1.812644022093e-13       0.000000000000e+00       4.007376458618e-10       3.856047874075e-11      -5.230379360770e-14 
   19       1.209312264164e-10       9.538402308084e-16       1.907836440488e-13       0.000000000000e+00       3.654765745183e-10       3.542650126200e-11      -6.508944534055e-14 
   20       1.225615152887e-10       1.013446997748e-15       1.985850745987e-13       0.000000000000e+00       3.344193007552e-10       3.265803417122e-11      -6.707225227940e-14 
   21       1.242669019026e-10       1.062822038222e-15       2.047475271225e-13       0.000000000000e+00       3.070783155997e-10       3.021128981568e-11      -6.039872255010e-14 
   22       1.260483451575e-10       1.120051364009e-15       2.097226575802e-13       0.000000000000e+00       2.828004728275e-10       2.800399180432e-11      -4.842649877015e-14 
   23       1.278945523789e-10       1.204534519238e-15       2.139584319064e-13       0.000000000000e+00       2.612522407747e-10       2.600370503349e-11      -3.409568156383e-14 
   24       1.297724969005e-10       1.334887833895e-15       2.179754953300e-13       0.000000000000e+00       2.419355539440e-10       2.417551263138e-11      -2.049360306903e-14 
   25       1.316994967680e-10       1.511540296143e-15       2.222676060947e-13       0.000000000000e+00       2.246234949409e-10       2.252952079819e-11      -9.461337788813e-15 
   26       1.336887104782e-10       1.727493865548e-15       2.272791081985e-13       0.000000000000e+00       2.090030851365e-10       2.106948745944e-11      -2.340222766515e-15 
   27       1.357212135266e-10       1.976326600903e-15       2.330320239284e-13       0.000000000000e+00       1.948870615017e-10       1.976268011614e-11       6.612351553647e-16 
   28       1.377610238316e-10       2.251617075788e-15       2.393447098842e-13       0.000000000000e+00       1.820321154039e-10       1.855804774451e-11      -8.760043121841e-17 
   29       1.398177781601e-10       2.552880040613e-15       2.459132473551e-13       0.000000000000e+00       1.703726737936e-10       1.745081268932e-11      -3.785827126836e-15 
   30       1.419056917331e-10       2.881361183009e-15       2.523009966112e-13       0.000000000000e+00       1.597836225948e-10       1.644178169908e-11      -9.206914889137e-15 
   31       1.440286014305e-10       3.237686631658e-15       2.579932000405e-13       0.000000000000e+00       1.500490680423e-10       1.552249977895e-11      -1.491004381055e-14 
   32       1.461894202729e-10       3.619744542082e-15       2.626179581986e-13       0.000000000000e+00       1.411188178306e-10       1.468401375468e-11      -2.001586373604e-14 
   33       1.483814961459e-10       4.023909152668e-15       2.657973171140e-13       0.000000000000e+00       1.329298012926e-10       1.390948099692e-11      -2.369404082142e-14 
   34       1.505920173587e-10       4.447030100702e-15       2.671642933289e-13       0.000000000000e+00       1.253675128382e-10       1.317806790933e-11      -2.518318862447e-14 
   35       1.528276903933e-10       4.891695966237e-15       2.666367506451e-13       0.000000000000e+00       1.183933056454e-10       1.249005362425e-11      -2.459285797712e-14 
   36       1.550963924908e-10       5.362878262058e-15       2.642412298457e-13       0.000000000000e+00       1.119512850640e-10       1.184963340780e-11      -2.239317676261e-14 
   37       1.574005899689e-10       5.865739726935e-15       2.600485874614e-13       0.000000000000e+00       1.059576741062e-10       1.125810647970e-11      -1.915800088072e-14 
   38       1.597406464257e-10       6.402607722821e-15       2.541901406310e-13       0.000000000000e+00       1.003970226310e-10       1.071432756257e-11      -1.536640576853e-14 
   39       1.621113739075e-10       6.975047085906e-15       2.468524638695e-13       0.000000000000e+00       9.525171838690e-11       1.021385436444e-11      -1.155078164420e-14 
   40       1.645002550066e-10       7.584671946937e-15       2.382774649504e-13       0.000000000000e+00       9.047272040586e-11       9.748417540510e-12      -8.359218014360e-15 
   41       1.668931569646e-10       8.232848497671e-15       2.286939147960e-13       0.000000000000e+00       8.599665239026e-11       9.308572508370e-12      -6.393425136752e-15 
   42       1.692953859697e-10       8.919684529413e-15       2.180770239171e-13       0.000000000000e+00       8.181036612746e-11       8.893461151840e-12      -5.641835922619e-15 
   43       1.717163140834e-10       9.644712627907e-15       2.063163456321e-13       0.000000000000e+00       7.790278088793e-11       8.503690130314e-12      -5.874006765961e-15 
   44       1.741633086756e-10       1.040714085685e-14       1.932794043075e-13       0.000000000000e+00       7.424550931269e-11       8.138520724081e-12      -6.789530126280e-15 
   45       1.766413165654e-10       1.120613758474e-14       1.788214598285e-13       0.000000000000e+00       7.080300358073e-11       7.796334962206e-12      -8.058659838204e-15 
   46       1.791520727724e-10       1.204183349118e-14       1.628219089096e-13       0.000000000000e+00       6.756985812743e-11       7.476471676904e-12      -9.469272985165e-15 
   47       1.816942187925e-10       1.291458592797e-14       1.451561483367e-13       0.000000000000e+00       6.454231509218e-11       7.177743379979e-12      -1.081619022924e-14 
   48       1.842631825207e-10       1.382469865102e-14       1.256843511819e-13       0.000000000000e+00       6.170701272776e-11       6.897822969557e-12      -1.185801418904e-14 
   49       1.868509125164e-10       1.477241983418e-14       1.042505787240e-13       0.000000000000e+00       5.904027117530e-11       6.633161999742e-12      -1.231522884696e-14 
   50       1.894491480953e-10       1.575794959106e-14       8.072586559943e-14       0.000000000000e+00       5.651522610734e-11       6.380020514709e-12      -1.195874523664e-14 
   51       1.920608925433e-10       1.678146955478e-14       5.515332284910e-14       0.000000000000e+00       5.412716942512e-11       6.138075712244e-12      -1.090828250036e-14 
   52       1.946915948367e-10       1.784311789428e-14       2.764088635329e-14       0.000000000000e+00       5.187385242527e-11       5.907651535235e-12      -9.411693705713e-15 
   53       1.973457890174e-10       1.894297900603e-14      -1.678060758236e-15       0.000000000000e+00       4.974790238189e-11       5.688663995539e-12      -7.763898155819e-15 
   54       2.000269948496e-10       2.008108197545e-14      -3.264350685731e-14       0.000000000000e+00       4.773647763288e-11       5.480591752562e-12      -6.309237092171e-15 
   55       2.027377215814e-10       2.125741761568e-14      -6.510776369090e-14       0.000000000000e+00       4.582518679342e-11       5.282711243444e-12      -5.360879633512e-15 
   56       2.054797079150e-10       2.247199806574e-14      -9.906635958947e-14       0.000000000000e+00       4.401177669678e-11       5.094937876915e-12      -4.930198346554e-15 
   57       2.082535676422e-10       2.372480930279e-14      -1.345575938914e-13       0.000000000000e+00       4.229524068853e-11       4.917142276125e-12      -4.934290955704e-15 
   58       2.110585985097e-10       2.501579306470e-14      -1.716256267912e-13       0.000000000000e+00       4.067167753223e-11       4.748885337580e-12      -5.272182881123e-15 
   59       2.138926868931e-10       2.634484603516e-14      -2.103208617184e-13       0.000000000000e+00       3.913411263060e-11       4.589399116924e-12      -5.823951132542e-15 
   60       2.167522124699e-10       2.771181902887e-14      -2.507003277174e-13       0.000000000000e+00       3.767231924670e-11       4.437567714733e-12      -6.449848203076e-15 
   61       2.196335597761e-10       2.911645916267e-14      -2.928159700443e-13       0.000000000000e+00       3.627565885786e-11       4.292230067490e-12      -7.019146360404e-15 
   62       2.225382650052e-10       3.055822304413e-14      -3.366755855861e-13       0.000000000000e+00       3.494275167863e-11       4.153210983124e-12      -7.506218246739e-15 
   63       2.254688605625e-10       3.203642001438e-14      -3.822737576107e-13       0.000000000000e+00       3.367366942288e-11       4.020488667175e-12      -7.914566082743e-15 
   64       2.284273266609e-10       3.355026288998e-14      -4.296031725448e-13       0.000000000000e+00       3.246702637329e-11       3.893884515033e-12      -8.249069897937e-15 
   65       2.314150469799e-10       3.509886533915e-14      -4.786546186896e-13       0.000000000000e+00       3.131989639727e-11       3.773054211535e-12      -8.516054430254e-15 
   66       2.344327643242e-10       3.668123925784e-14      -5.294169849376e-13       0.000000000000e+00       3.022772996296e-11       3.657478830555e-12      -8.723356025584e-15 
   67       2.374805362824e-10       3.829629214590e-14      -5.818772594882e-13       0.000000000000e+00       2.918427115519e-11       3.546455934600e-12      -8.880389537327e-15 
   68       2.405581908579e-10       3.994294582848e-14      -6.360205843476e-13       0.000000000000e+00       2.818322866885e-11       3.439296736629e-12      -8.997228775443e-15 
   69       2.436668996851e-10       4.162052641984e-14      -6.918304345210e-13       0.000000000000e+00       2.722386745737e-11       3.335983871540e-12      -9.081481948529e-15 
   70       2.468078453960e-10       4.332844902589e-14      -7.492884729897e-13       0.000000000000e+00       2.630640622910e-11       3.236631529812e-12      -9.140900376334e-15 
   71       2.499817188649e-10       4.506610386133e-14      -8.083744982810e-13       0.000000000000e+00       2.543032627692e-11       3.141287622802e-12      -9.184349845837e-15 
   72       2.531886876541e-10       4.683285672921e-14      -8.690664446107e-13       0.000000000000e+00       2.459433335299e-11       3.049930152480e-12      -9.221852281883e-15 
   73       2.564283644590e-10       4.862804950054e-14      -9.313403820263e-13       0.000000000000e+00       2.379631954344e-11       2.962463581149e-12      -9.264627417818e-15 
   74       2.596997755547e-10       5.045100059386e-14      -9.951705165497e-13       0.000000000000e+00       2.303332514312e-11       2.878715201179e-12      -9.325134466127e-15 
   75       2.630013292411e-10       5.230100545488e-14      -1.060529190320e-12       0.000000000000e+00       2.230150053034e-11       2.798431504730e-12      -9.417113789067e-15 
   76       2.663314616585e-10       5.417717676661e-14      -1.127383895579e-12       0.000000000000e+00       2.159706185423e-11       2.721345330793e-12      -9.551625232659e-15 
   77       2.696907799479e-10       5.607793037970e-14      -1.195687687674e-12       0.000000000000e+00       2.091944357108e-11       2.647399467343e-12      -9.724236979678e-15 
   78       2.730802543944e-10       5.800140607483e-14      -1.265387015959e-12       0.000000000000e+00       2.026865419318e-11       2.576557418083e-12      -9.925565375474e-15 
   79       2.765005583493e-10       5.994561675438e-14      -1.336424494753e-12       0.000000000000e+00       1.964431601685e-11       2.508734098762e-12      -1.014503124624e-14 
   80       2.799520505664e-10       6.190844563552e-14      -1.408738842255e-12       0.000000000000e+00       1.904564737610e-11       2.443793658249e-12      -1.037081947801e-14 
   81       2.834347575372e-10       6.388764344344e-14      -1.482264819447e-12       0.000000000000e+00       1.847144489630e-11       2.381547299607e-12      -1.058983859559e-14 
   82       2.869483558269e-10       6.588082560439e-14      -1.556933169006e-12       0.000000000000e+00       1.792006574787e-11       2.321751101164e-12      -1.078768034159e-14 
   83       2.904921544102e-10       6.788546943891e-14      -1.632670554215e-12       0.000000000000e+00       1.738940989989e-11       2.264103837587e-12      -1.094857925534e-14 
   84       2.940654638597e-10       6.989916370864e-14      -1.709407993629e-12       0.000000000000e+00       1.687743054657e-11       2.208318017082e-12      -1.105868030045e-14 
   85       2.976688129269e-10       7.192041093803e-14      -1.787107905495e-12       0.000000000000e+00       1.638380148349e-11       2.154351296761e-12      -1.111655269377e-14 
   86       3.013029021956e-10       7.394795357279e-14      -1.865741455564e-12       0.000000000000e+00       1.590849489515e-11       2.102209614461e-12      -1.112435304052e-14 
   87       3.049682241632e-10       7.598053486531e-14      -1.945280540446e-12       0.000000000000e+00       1.545126902002e-11       2.051876449167e-12      -1.108468720846e-14 
   88       3.086650520784e-10       7.801690030903e-14      -2.025697869308e-12       0.000000000000e+00       1.501165928105e-11       2.003311872613e-12      -1.100062550430e-14 
   89       3.123934287778e-10       8.005579907284e-14      -2.106967045569e-12       0.000000000000e+00       1.458896941616e-11       1.956451600877e-12      -1.087571785015e-14 
   90       3.161531555246e-10       8.209598543541e-14      -2.189062648590e-12       0.000000000000e+00       1.418226260878e-11       1.911206045978e-12      -1.071400895992e-14 
   91       3.199437808450e-10       8.413622021964e-14      -2.271960315377e-12       0.000000000000e+00       1.379035261839e-11       1.867459367470e-12      -1.052005351577e-14 
   92       3.237645893661e-10       8.617527222700e-14      -2.355636822271e-12       0.000000000000e+00       1.341179491099e-11       1.825068524043e-12      -1.029893134455e-14 
   93       3.276148587422e-10       8.821180922558e-14      -2.440062013472e-12       0.000000000000e+00       1.304522941693e-11       1.783899167929e-12      -1.005578165416e-14 
   94       3.314946988809e-10       9.024404904396e-14      -2.525173020531e-12       0.000000000000e+00       1.269048703829e-11       1.743941563484e-12      -9.794292647563e-15 
   95       3.354043188856e-10       9.227005840971e-14      -2.610896298472e-12       0.000000000000e+00       1.234763393583e-11       1.705210430386e-12      -9.518011749304e-15 
   96       3.393437628305e-10       9.428785863942e-14      -2.697155403665e-12       0.000000000000e+00       1.201663074142e-11       1.667709217510e-12      -9.230814764726e-15 
   97       3.433129022787e-10       9.629542555699e-14      -2.783870963600e-12       0.000000000000e+00       1.169732851526e-11       1.631429660257e-12      -8.936914454596e-15 
   98       3.473114287992e-10       9.829068941198e-14      -2.870960646669e-12       0.000000000000e+00       1.138946470315e-11       1.596351337884e-12      -8.640869109750e-15 
   99       3.513388464846e-10       1.002715347979e-13      -2.958339131942e-12       0.000000000000e+00       1.109265909372e-11       1.562441230840e-12      -8.347591125741e-15 
  100       3.553944644684e-10       1.022358005703e-13      -3.045918078947e-12       0.000000000000e+00       1.080640977567e-11       1.529653278093e-12      -8.062355577482e-15 
  101       3.594773894426e-10       1.041812797656e-13      -3.133606097442e-12       0.000000000000e+00       1.053008909507e-11       1.497927934468e-12      -7.790808793891e-15 
  102       3.635865181754e-10       1.061057195188e-13      -3.221308717201e-12       0.000000000000e+00       1.026293961255e-11       1.467191727971e-12      -7.538976932537e-15 
  103       3.677205300279e-10       1.080068209821e-13      -3.308928357785e-12       0.000000000000e+00       1.000407006058e-11       1.437356817128e-12      -7.313274554280e-15 
  104       3.718781692529e-10       1.098823479561e-13      -3.396370852783e-12       0.000000000000e+00       9.752657395742e-12       1.408341004470e-12      -7.119026413482e-15 
  105       3.760591514335e-10       1.117304696718e-13      -3.483566091337e-12       0.000000000000e+00       9.508592748034e-12       1.380131809441e-12      -6.955786943261e-15 
  106       3.802633661113e-10       1.135494643767e-13      -3.570450121622e-12       0.000000000000e+00       9.271915599258e-12       1.352730265838e-12      -6.821401543105e-15 
  107       3.844905936941e-10       1.153376158565e-13      -3.656958886688e-12       0.000000000000e+00       9.042613723530e-12       1.326131023318e-12      -6.713429232565e-15 
