# dimensionless total lensed [l(l+1)/2pi] C_l's
# for l=2 to 2500, i.e. number of multipoles equal to 2499
#
# -> if you prefer output in CAMB/HealPix/LensPix units/order, set 'format' to 'camb' in input file
# -> if you don't want to see such a header, set 'headers' to 'no' in input file
# -> for CMB lensing (phi), these are C_l^phi-phi for the lensing potential.
#    Remember the conversion factors:
#    C_l^dd (deflection) = l(l+1) C_l^phi-phi
#    C_l^gg (shear/convergence) = 1/4 (l(l+1))^2 C_l^phi-phi
#
# 1:l     2:TT                     3:EE                     4:TE                     5:BB                     6:phiphi                 7:TPhi                   8:Ephi               
    2       1.495442756352e-10       7.309265058195e-15       4.815171146230e-13       2.388859501967e-19       8.628903626841e-09       4.854772022289e-10      -2.515854151938e-12 
    3       1.409375666015e-10       1.238839452053e-14       6.068719460545e-13       4.780041067592e-19       5.411291734618e-09       3.469573536444e-10      -2.211507031246e-12 
    4       1.324638938258e-10       1.446592354119e-14       6.277975858903e-13       7.971813484837e-19       3.776588568364e-09       2.639785239628e-10      -1.764116066972e-12 
    5       1.257528921076e-10       1.337973190803e-14       5.879550143719e-13       1.196704841365e-18       2.821984241693e-09       2.093815914767e-10      -1.309529286409e-12 
    6       1.208087559442e-10       1.032478440836e-14       5.173987896629e-13       1.676914976156e-18       2.205212286927e-09       1.709428816465e-10      -8.948468928659e-13 
    7       1.173342229271e-10       6.843838593621e-15       4.365330659182e-13       2.238194085721e-18       1.778233640119e-09       1.425663810216e-10      -5.443860561896e-13 
    8       1.150094184728e-10       4.045255169591e-15       3.576614995732e-13       2.880953942799e-18       1.468351542479e-09       1.208855530872e-10      -2.689334591772e-13 
    9       1.135899960903e-10       2.339962949714e-15       2.880577371451e-13       3.605622532498e-18       1.235838575278e-09       1.038809857419e-10      -7.009986556091e-14 
   10       1.128612981997e-10       1.576066389216e-15       2.317780346711e-13       4.412630621056e-18       1.056623414521e-09       9.029295138148e-11       5.745597694979e-14 
   11       1.126830754626e-10       1.351208672198e-15       1.905546765950e-13       5.302398648386e-18       8.886898896285e-10       7.950621169472e-11       1.233291871332e-13 
   12       1.129466844278e-10       1.294588309021e-15       1.640599028830e-13       6.275324456502e-18       7.765278522141e-10       7.028429457299e-11       1.421600819351e-13 
   13       1.135320852624e-10       1.208007395999e-15       1.505250305147e-13       7.331772329652e-18       6.844563352476e-10       6.274649405747e-11       1.277329333963e-13 
   14       1.143407885659e-10       1.063264023599e-15       1.473981481110e-13       8.472063766456e-18       6.078507045612e-10       5.620929936626e-11       9.279533163186e-14 
   15       1.153792155022e-10       9.202377694946e-16       1.516646926187e-13       9.696470331664e-18       5.433693972149e-10       5.074768433207e-11       4.959311812504e-14 
   16       1.166084644666e-10       8.404031686279e-16       1.602810271853e-13       1.100520884845e-17       4.885455326256e-10       4.611883489774e-11       7.232456586959e-15 
   17       1.179455035235e-10       8.411741198529e-16       1.707677999477e-13       1.239843909484e-17       4.415155594135e-10       4.212237776878e-11      -2.792921293602e-14 
   18       1.193943882625e-10       8.950457187694e-16       1.812583728834e-13       1.387626283792e-17       4.006946025982e-10       3.857272552381e-11      -5.233422210723e-14 
   19       1.209630530835e-10       9.693348384660e-16       1.907730516623e-13       1.543873274149e-17       3.654375321322e-10       3.544034576583e-11      -6.510245773981e-14 
   20       1.225956274827e-10       1.030562366482e-15       1.985685593479e-13       1.708584411115e-17       3.343837620425e-10       3.267209276414e-11      -6.706958340959e-14 
   21       1.243040241666e-10       1.081655433244e-15       2.047244339897e-13       1.881756010953e-17       3.070458393763e-10       3.022369209176e-11      -6.038517373227e-14 
   22       1.260879297428e-10       1.140726893290e-15       2.096934227826e-13       2.063380189309e-17       2.827706837240e-10       2.801369918727e-11      -4.840846087809e-14 
   23       1.279365610113e-10       1.227172465403e-15       2.139233705316e-13       2.253447858553e-17       2.612248149077e-10       2.601109519573e-11      -3.407762714076e-14 
   24       1.298178482188e-10       1.359591107155e-15       2.179345823090e-13       2.451947736818e-17       2.419102434120e-10       2.418236197720e-11      -2.047694649310e-14 
   25       1.317486505145e-10       1.538392481983e-15       2.222217806625e-13       2.658869842686e-17       2.246000765937e-10       2.253681855276e-11      -9.447605347628e-15 
   26       1.337412784387e-10       1.756560509509e-15       2.272302566956e-13       2.874204282600e-17       2.089813629592e-10       2.107677790948e-11      -2.331876488871e-15 
   27       1.357768913979e-10       2.007678376104e-15       2.329801931254e-13       3.097944313312e-17       1.948668561487e-10       1.976937864478e-11       6.620953568014e-16 
   28       1.378198760398e-10       2.285336732443e-15       2.392874075835e-13       3.330085567788e-17       1.820132726750e-10       1.856388400369e-11      -9.525123708467e-17 
   29       1.398799629452e-10       2.589051749803e-15       2.458479839216e-13       3.570629583185e-17       1.703550525946e-10       1.745581125634e-11      -3.801162795513e-15 
   30       1.419713799795e-10       2.920067138435e-15       2.522262680285e-13       3.819581828706e-17       1.597671054415e-10       1.644631517549e-11      -9.226630127712e-15 
   31       1.440979698544e-10       3.279007005195e-15       2.579084709273e-13       4.076951696560e-17       1.500335705703e-10       1.552722342445e-11      -1.492867494885e-14 
   32       1.462626233267e-10       3.663758658928e-15       2.625223721817e-13       4.342754858772e-17       1.411042594907e-10       1.468927059387e-11      -2.002927765790e-14 
   33       1.484586499220e-10       4.070695916527e-15       2.656891952398e-13       4.617012634750e-17       1.329161021657e-10       1.391502526090e-11      -2.370101164865e-14 
   34       1.506731848569e-10       4.496668841790e-15       2.670412753083e-13       4.899751366892e-17       1.253545993804e-10       1.318311844775e-11      -2.518539266847e-14 
   35       1.529128556562e-10       4.944269794296e-15       2.664970731940e-13       5.191000578688e-17       1.183811097775e-10       1.249405699952e-11      -2.459200053630e-14 
   36       1.551854400346e-10       5.418475907927e-15       2.640842842659e-13       5.490794962707e-17       1.119397487163e-10       1.185257241707e-11      -2.238998500799e-14 
   37       1.574933301721e-10       5.924454854007e-15       2.598749141648e-13       5.799172879103e-17       1.059467521136e-10       1.126048274855e-11      -1.915230788351e-14 
   38       1.598369927685e-10       6.464531521802e-15       2.540004538286e-13       6.116167995514e-17       1.003866718503e-10       1.071663582367e-11      -1.535845473673e-14 
   39       1.622114206168e-10       7.040265330031e-15       2.466473312372e-13       6.441815415991e-17       9.524189669822e-11       1.021639854977e-11      -1.154171314046e-14 
   40       1.646043172855e-10       7.653263743679e-15       2.380572404763e-13       6.776154226967e-17       9.046338974767e-11       9.751258461083e-12      -8.351243935792e-15 
   41       1.670017359978e-10       8.304886783313e-15       2.284586159893e-13       7.119223652341e-17       8.598778028532e-11       9.311537954066e-12      -6.389560746350e-15 
   42       1.694088727876e-10       8.995242664439e-15       2.178260326196e-13       7.471049438277e-17       8.180192144469e-11       8.896376114728e-12      -5.644108180354e-15 
   43       1.718348737696e-10       9.723866744685e-15       2.060482191928e-13       7.831653438861e-17       7.789473394496e-11       8.506452663341e-12      -5.882707725810e-15 
   44       1.742868321760e-10       1.048997060231e-14       1.929917238891e-13       8.201057276913e-17       7.423783373843e-11       8.141119068669e-12      -6.802859409745e-15 
   45       1.767694476732e-10       1.129272547452e-14       1.785110501062e-13       8.579278629941e-17       7.079567706027e-11       7.798841902549e-12      -8.072933496833e-15 
   46       1.792844941196e-10       1.213225949431e-14       1.624863243403e-13       8.966318866856e-17       6.756285904901e-11       7.478960027676e-12      -9.481082183645e-15 
   47       1.818307514504e-10       1.300892547364e-14       1.447942570817e-13       9.362171640813e-17       6.453562231680e-11       7.180258515200e-12      -1.082315784984e-14 
   48       1.844038159332e-10       1.392302191060e-14       1.252965850738e-13       9.766825990254e-17       6.170060658907e-11       6.900376776350e-12      -1.185902776266e-14 
   49       1.869958360931e-10       1.487479096684e-14       1.038391966281e-13       1.018026608384e-16       5.903413455356e-11       6.635726491523e-12      -1.231068661410e-14 
   50       1.895987269052e-10       1.586442733747e-14       8.029468894649e-14       1.060247061861e-16       5.650934474566e-11       6.382532006597e-12      -1.195045823866e-14 
   51       1.922154535661e-10       1.689211239163e-14       5.470568770423e-14       1.103341141353e-16       5.412152955844e-11       6.140474853242e-12      -1.089820423035e-14 
   52       1.948513541054e-10       1.795798580282e-14       2.717891800031e-14       1.147305399331e-16       5.186844049513e-11       5.909896627840e-12      -9.401526649844e-15 
   53       1.975108308050e-10       1.906213399221e-14      -2.153686109945e-15       1.192135763684e-16       4.974270555322e-11       5.690734431602e-12      -7.755026031646e-15 
   54       2.001972498070e-10       2.020458861868e-14      -3.313381244120e-14       1.237827510584e-16       4.773148434567e-11       5.482491621634e-12      -6.302653412097e-15 
   55       2.029129837250e-10       2.138534223779e-14      -6.561527034461e-14       1.284375786586e-16       4.582038691903e-11       5.284467432654e-12      -5.357166292825e-15 
   56       2.056597818603e-10       2.260440329353e-14      -9.959336808081e-14       1.331777388997e-16       4.400716031347e-11       5.096579647800e-12      -4.929677256444e-15 
   57       2.084383161121e-10       2.386175214282e-14      -1.351056276644e-13       1.380029380252e-16       4.229079795582e-11       4.918695065114e-12      -4.937039182649e-15 
   58       2.112479532762e-10       2.515732426071e-14      -1.721953001192e-13       1.429128571812e-16       4.066739898320e-11       4.750369786504e-12      -5.277996305037e-15 
   59       2.140866602258e-10       2.649100939926e-14      -2.109117418435e-13       1.479071518422e-16       3.912998948227e-11       4.590830054686e-12      -5.832306522285e-15 
   60       2.169509090912e-10       2.786265074647e-14      -2.513107909761e-13       1.529854512377e-16       3.766834372855e-11       4.438953090119e-12      -6.459863709328e-15 
   61       2.198371658088e-10       2.927198834539e-14      -2.934433040061e-13       1.581474365688e-16       3.627182426053e-11       4.293571304309e-12      -7.029644774520e-15 
   62       2.227469607169e-10       3.071847641311e-14      -3.373169073629e-13       1.633930974753e-16       3.493905144878e-11       4.154508085849e-12      -7.516129092992e-15 
   63       2.256827930300e-10       3.220142333792e-14      -3.829262893557e-13       1.687225323793e-16       3.367009702899e-11       4.021741560552e-12      -7.923062469670e-15 
   64       2.286466042042e-10       3.372004124294e-14      -4.302642830350e-13       1.741358766615e-16       3.246357545895e-11       3.895093004507e-12      -8.255609426310e-15 
   65       2.316397333567e-10       3.527344337639e-14      -4.793218668907e-13       1.796333045869e-16       3.131656094318e-11       3.774217941504e-12      -8.520421829310e-15 
   66       2.346628726847e-10       3.686064150204e-14      -5.300881655520e-13       1.852150312318e-16       3.022450445758e-11       3.658597240460e-12      -8.725707517525e-15 
   67       2.377160228850e-10       3.848054328947e-14      -5.825504504861e-13       1.908813144089e-16       2.918115077407e-11       3.547528212849e-12      -8.881298930073e-15 
   68       2.407989599229e-10       4.013207044983e-14      -6.366940855693e-13       1.966324447536e-16       2.818020927188e-11       3.440321931924e-12      -8.997631376130e-15 
   69       2.439128448189e-10       4.181454677294e-14      -6.925023494296e-13       2.024687093425e-16       2.722094497780e-11       3.336961518315e-12      -9.082284033857e-15 
   70       2.470588614588e-10       4.352738438989e-14      -7.499565781966e-13       2.083904241293e-16       2.630357656257e-11       3.237561860316e-12      -9.142858132443e-15 
   71       2.502377031671e-10       4.526997045438e-14      -8.090362167467e-13       2.143979467268e-16       2.542758535403e-11       3.142171630714e-12      -9.188045307148e-15 
   72       2.534495412034e-10       4.704166762123e-14      -8.697188179918e-13       2.204916780302e-16       2.459167721556e-11       3.050769658431e-12      -9.227668340730e-15 
   73       2.566939932600e-10       4.884181452483e-14      -9.319800421691e-13       2.266720638404e-16       2.379374442471e-11       2.963261300168e-12      -9.272721904851e-15 
   74       2.599700919591e-10       5.066972625758e-14      -9.957936561297e-13       2.329395964870e-16       2.303082755164e-11       2.879474812044e-12      -9.335413301505e-15 
   75       2.632762533501e-10       5.252469484839e-14      -1.061131532628e-12       2.392948164520e-16       2.229907733765e-11       2.799157721242e-12      -9.429203204425e-15 
   76       2.666109214890e-10       5.440582995427e-14      -1.127960749709e-12       2.457382150992e-16       2.159471029340e-11       2.722043665083e-12      -9.564906731774e-15 
   77       2.699747075178e-10       5.631154633883e-14      -1.196234279781e-12       2.522699187983e-16       2.091716094040e-11       2.648075000228e-12      -9.738085777405e-15 
   78       2.733685852346e-10       5.823998336803e-14      -1.265898593470e-12       2.588899498808e-16       2.026643780754e-11       2.577214383946e-12      -9.939420947842e-15 
   79       2.767932322622e-10       6.018915375301e-14      -1.336896349695e-12       2.655983200255e-16       1.964216324924e-11       2.509375759873e-12      -1.015840787465e-14 
   80       2.802490124087e-10       6.215694075200e-14      -1.409166335489e-12       2.723950298534e-16       1.904355570090e-11       2.444422174648e-12      -1.038331716976e-14 
   81       2.837359580283e-10       6.414109537216e-14      -1.482643405828e-12       2.792800685235e-16       1.846941193455e-11       2.382163594545e-12      -1.060115438077e-14 
   82       2.872537523821e-10       6.613923357157e-14      -1.557258423450e-12       2.862534133279e-16       1.791808931432e-11       2.322354722107e-12      -1.079761994628e-14 
   83       2.908017119993e-10       6.814883346106e-14      -1.632938198683e-12       2.933150292872e-16       1.738748805204e-11       2.264692812784e-12      -1.095706915122e-14 
   84       2.943791527891e-10       7.016748447072e-14      -1.709613839880e-12       3.004648840855e-16       1.687556157265e-11       2.208889084883e-12      -1.106575875173e-14 
   85       2.979865967531e-10       7.219368843857e-14      -1.787247527090e-12       3.077029966076e-16       1.638198369178e-11       2.154901333960e-12      -1.112229297158e-14 
   86       3.016247339102e-10       7.422618681268e-14      -1.865810087200e-12       3.150293957439e-16       1.590672657240e-11       2.102736057170e-12      -1.112884386238e-14 
   87       3.052940453063e-10       7.626372190988e-14      -1.945273057944e-12       3.224441056210e-16       1.544954845053e-11       2.052377356044e-12      -1.108803357368e-14 
   88       3.089947918251e-10       7.830503835230e-14      -2.025608769082e-12       3.299471454554e-16       1.500998476661e-11       2.003785989985e-12      -1.100294954635e-14 
   89       3.127270029985e-10       8.034888450401e-14      -2.106790423575e-12       3.375385294062e-16       1.458733929685e-11       1.956898429764e-12      -1.087715970611e-14 
   90       3.164904658169e-10       8.239401390765e-14      -2.188792178770e-12       3.452182664286e-16       1.418067528455e-11       1.911625911020e-12      -1.071472765700e-14 
   91       3.202847135395e-10       8.443918672098e-14      -2.271589227576e-12       3.529863601267e-16       1.378880657145e-11       1.867853487748e-12      -1.052022787476e-14 
   92       3.241090145053e-10       8.648317115352e-14      -2.355157879641e-12       3.608428086070e-16       1.341028872911e-11       1.825439085806e-12      -1.029876090038e-14 
   93       3.279626311747e-10       8.852463495573e-14      -2.439467563401e-12       3.687877214439e-16       1.304376179078e-11       1.784249191595e-12      -1.005548044278e-14 
   94       3.318456661287e-10       9.056179809773e-14      -2.524455279892e-12       3.768216910178e-16       1.268905667493e-11       1.744274113958e-12      -9.794060327409e-15 
   95       3.357583232117e-10       9.259273026649e-14      -2.610047439001e-12       3.849454770146e-16       1.234623954495e-11       1.705528388353e-12      -9.518023994963e-15 
   96       3.397006412572e-10       9.461545608719e-14      -2.696167566938e-12       3.931598957311e-16       1.201527104757e-11       1.668015248608e-12      -9.231220427469e-15 
   97       3.436724866074e-10       9.662795505060e-14      -2.782736276510e-12       4.014658215351e-16       1.169600227058e-11       1.631726183302e-12      -8.937832641824e-15 
   98       3.476735456333e-10       9.862816144042e-14      -2.869671237398e-12       4.098641883266e-16       1.138817070055e-11       1.596640492146e-12      -8.642386183315e-15 
   99       3.517033172544e-10       1.006139642607e-13      -2.956887146444e-12       4.183559909986e-16       1.109139618050e-11       1.562724842364e-12      -8.349757619135e-15 
  100       3.557611054584e-10       1.025832071632e-13      -3.044295697916e-12       4.269422868974e-16       1.080517686763e-11       1.529932825081e-12      -8.065183031910e-15 
  101       3.598460118214e-10       1.045336883747e-13      -3.131805553799e-12       4.356241972839e-16       1.052888519103e-11       1.498204511694e-12      -7.794266513217e-15 
  102       3.639569280277e-10       1.064631606245e-13      -3.219322314064e-12       4.444029087940e-16       1.026176380939e-11       1.467466010266e-12      -7.542988657107e-15 
  103       3.680925283892e-10       1.083693310718e-13      -3.306748486951e-12       4.532796748992e-16       1.000292156871e-11       1.437629021897e-12      -7.317715053626e-15 
  104       3.722515525081e-10       1.102499698559e-13      -3.393989982102e-12       4.622556857687e-16       9.751535528707e-12       1.408610935983e-12      -7.123729318393e-15 
  105       3.764337128593e-10       1.121032526049e-13      -3.480976652929e-12       4.713316546855e-16       9.507496829571e-12       1.380399163022e-12      -6.960588199837e-15 
  106       3.806388964347e-10       1.139274642749e-13      -3.567644486727e-12       4.805081782245e-16       9.270844942579e-12       1.352994705658e-12      -6.826151928008e-15 
  107       3.848668813089e-10       1.157208957664e-13      -3.653929371074e-12       4.897858628765e-16       9.041567636070e-12       1.326392180562e-12      -6.717996020232e-15 
