# dimensionless total [l(l+1)/2pi] C_l's
# for l=2 to 3000, i.e. number of multipoles equal to 2999
#
# -> if you prefer output in CAMB/HealPix/LensPix units/order, set 'format' to 'camb' in input file
# -> if you don't want to see such a header, set 'headers' to 'no' in input file
# -> for CMB lensing (phi), these are C_l^phi-phi for the lensing potential.
#    Remember the conversion factors:
#    C_l^dd (deflection) = l(l+1) C_l^phi-phi
#    C_l^gg (shear/convergence) = 1/4 (l(l+1))^2 C_l^phi-phi
#
# 1:l     2:TT                     3:EE                     4:TE                     5:BB                     6:phiphi                 7:TPhi                   8:Ephi               
    2       1.495437883303e-10       7.309026172212e-15       4.815171198138e-13       0.000000000000e+00       8.628903626841e-09       4.854772022289e-10      -2.515854151938e-12 
    3       1.409365941767e-10       1.238791651610e-14       6.068719691432e-13       0.000000000000e+00       5.411291734618e-09       3.469573536444e-10      -2.211507031246e-12 
    4       1.324622779185e-10       1.446512635826e-14       6.277976520639e-13       0.000000000000e+00       3.776588568364e-09       2.639785239628e-10      -1.764116066972e-12 
    5       1.257504771183e-10       1.337853519781e-14       5.879551646460e-13       0.000000000000e+00       2.821984241693e-09       2.093815914767e-10      -1.309529286409e-12 
    6       1.208053896015e-10       1.032310747877e-14       5.173990840390e-13       0.000000000000e+00       2.205212286927e-09       1.709428816465e-10      -8.948468928659e-13 
    7       1.173297567767e-10       6.841600365737e-15       4.365335860668e-13       0.000000000000e+00       1.778233640119e-09       1.425663810216e-10      -5.443860561896e-13 
    8       1.150037082784e-10       4.042374146267e-15       3.576623509893e-13       0.000000000000e+00       1.468351542479e-09       1.208855530872e-10      -2.689334591772e-13 
    9       1.135829021420e-10       2.336357197457e-15       2.880590507484e-13       0.000000000000e+00       1.235838575278e-09       1.038809857419e-10      -7.009986556091e-14 
   10       1.128526855252e-10       1.571653533767e-15       2.317799678485e-13       0.000000000000e+00       1.056623414521e-09       9.029295138148e-11       5.745597694979e-14 
   11       1.126728139415e-10       1.345905907879e-15       1.905574137013e-13       0.000000000000e+00       8.886898896285e-10       7.950621169472e-11       1.233291871332e-13 
   12       1.129346488105e-10       1.288312421481e-15       1.640636552418e-13       0.000000000000e+00       7.765278522141e-10       7.028429457299e-11       1.421600819351e-13 
   13       1.135181551006e-10       1.200674797511e-15       1.505300359742e-13       0.000000000000e+00       6.844563352476e-10       6.274649405747e-11       1.277329333963e-13 
   14       1.143248480623e-10       1.054790799705e-15       1.474046702317e-13       0.000000000000e+00       6.078507045612e-10       5.620929936626e-11       9.279533163186e-14 
   15       1.153611532904e-10       9.105397354116e-16       1.516730195755e-13       0.000000000000e+00       5.433693972149e-10       5.074768433207e-11       4.959311812504e-14 
   16       1.165881733331e-10       8.293959335520e-16       1.602914704770e-13       0.000000000000e+00       4.885455326256e-10       4.611883489774e-11       7.232456586959e-15 
   17       1.179228800867e-10       8.287731570658e-16       1.707806930084e-13       0.000000000000e+00       4.415155594135e-10       4.212237776878e-11      -2.792921293602e-14 
   18       1.193693326165e-10       8.811664402740e-16       1.812740696382e-13       0.000000000000e+00       4.006946025982e-10       3.857272552381e-11      -5.233422210723e-14 
   19       1.209354684613e-10       9.538926660913e-16       1.907919253951e-13       0.000000000000e+00       3.654375321322e-10       3.544034576583e-11      -6.510245773981e-14 
   20       1.225654198491e-10       1.013472812600e-15       1.985910012024e-13       0.000000000000e+00       3.343837620425e-10       3.267209276414e-11      -6.706958340959e-14 
   21       1.242711019251e-10       1.062834163764e-15       2.047508523357e-13       0.000000000000e+00       3.070458393763e-10       3.022369209176e-11      -6.038517373227e-14 
   22       1.260522033636e-10       1.120089801587e-15       2.097242421470e-13       0.000000000000e+00       2.827706837240e-10       2.801369918727e-11      -4.840846087809e-14 
   23       1.278979428135e-10       1.204635722312e-15       2.139590314281e-13       0.000000000000e+00       2.612248149077e-10       2.601109519573e-11      -3.407762714076e-14 
   24       1.297762520732e-10       1.335071222130e-15       2.179755406264e-13       0.000000000000e+00       2.419102434120e-10       2.418236197720e-11      -2.047694649310e-14 
   25       1.317039917478e-10       1.511806333331e-15       2.222685078998e-13       0.000000000000e+00       2.246000765937e-10       2.253681855276e-11      -9.447605347628e-15 
   26       1.336934736407e-10       1.727825388594e-15       2.272832397438e-13       0.000000000000e+00       2.089813629592e-10       2.107677790948e-11      -2.331876488871e-15 
   27       1.357258584164e-10       1.976712002813e-15       2.330399346022e-13       0.000000000000e+00       1.948668561487e-10       1.976937864478e-11       6.620953568014e-16 
   28       1.377655339147e-10       2.252057279783e-15       2.393544257424e-13       0.000000000000e+00       1.820132726750e-10       1.856388400369e-11      -9.525123708467e-17 
   29       1.398222321195e-10       2.553377828845e-15       2.459228125485e-13       0.000000000000e+00       1.703550525946e-10       1.745581125634e-11      -3.801162795513e-15 
   30       1.419101823158e-10       2.881917810205e-15       2.523094562486e-13       0.000000000000e+00       1.597671054415e-10       1.644631517549e-11      -9.226630127712e-15 
   31       1.440332286626e-10       3.238301792603e-15       2.580005825460e-13       0.000000000000e+00       1.500335705703e-10       1.552722342445e-11      -1.492867494885e-14 
   32       1.461942637068e-10       3.620417521417e-15       2.626239835024e-13       0.000000000000e+00       1.411042594907e-10       1.468927059387e-11      -2.002927765790e-14 
   33       1.483865989367e-10       4.024639243394e-15       2.658008937941e-13       0.000000000000e+00       1.329161021657e-10       1.391502526090e-11      -2.370101164865e-14 
   34       1.505973716756e-10       4.447817452652e-15       2.671636580043e-13       0.000000000000e+00       1.253545993804e-10       1.318311844775e-11      -2.518539266847e-14 
   35       1.528332118154e-10       4.892544941309e-15       2.666307411981e-13       0.000000000000e+00       1.183811097775e-10       1.249405699952e-11      -2.459200053630e-14 
   36       1.551018996575e-10       5.363799271925e-15       2.642298398333e-13       0.000000000000e+00       1.119397487163e-10       1.185257241707e-11      -2.238998500799e-14 
   37       1.574058301315e-10       5.866748557796e-15       2.600329565806e-13       0.000000000000e+00       1.059467521136e-10       1.126048274855e-11      -1.915230788351e-14 
   38       1.597454726901e-10       6.403718213808e-15       2.541715697798e-13       0.000000000000e+00       1.003866718503e-10       1.071663582367e-11      -1.535845473673e-14 
   39       1.621158230209e-10       6.976268217892e-15       2.468320885493e-13       0.000000000000e+00       9.524189669822e-11       1.021639854977e-11      -1.154171314046e-14 
   40       1.645045877937e-10       7.586006607570e-15       2.382561830054e-13       0.000000000000e+00       9.046338974767e-11       9.751258461083e-12      -8.351243935792e-15 
   41       1.668978234200e-10       8.234294030231e-15       2.286722566005e-13       0.000000000000e+00       8.598778028532e-11       9.311537954066e-12      -6.389560746350e-15 
   42       1.693007287653e-10       8.921239524096e-15       2.180548403084e-13       0.000000000000e+00       8.180192144469e-11       8.896376114728e-12      -5.644108180354e-15 
   43       1.717224527474e-10       9.646379368029e-15       2.062926097112e-13       0.000000000000e+00       7.789473394496e-11       8.506452663341e-12      -5.882707725810e-15 
   44       1.741700915042e-10       1.040892612370e-14       1.932520514872e-13       0.000000000000e+00       7.423783373843e-11       8.141119068669e-12      -6.802859409745e-15 
   45       1.766483475548e-10       1.120805212446e-14       1.787875989614e-13       0.000000000000e+00       7.079567706027e-11       7.798841902549e-12      -8.072933496833e-15 
   46       1.791589970151e-10       1.204388687751e-14       1.627792998335e-13       0.000000000000e+00       6.756285904901e-11       7.478960027676e-12      -9.481082183645e-15 
   47       1.817008218761e-10       1.291678473432e-14       1.451037765348e-13       0.000000000000e+00       6.453562231680e-11       7.180258515200e-12      -1.082315784984e-14 
   48       1.842694204068e-10       1.382704585775e-14       1.256226680503e-13       0.000000000000e+00       6.170060658907e-11       6.900376776350e-12      -1.185902776266e-14 
   49       1.868569430780e-10       1.477491420423e-14       1.041817548565e-13       0.000000000000e+00       5.903413455356e-11       6.635726491523e-12      -1.231068661410e-14 
   50       1.894553066894e-10       1.576058641424e-14       8.065351887656e-14       0.000000000000e+00       5.650934474566e-11       6.382532006597e-12      -1.195045823866e-14 
   51       1.920674779302e-10       1.678424601070e-14       5.508047267153e-14       0.000000000000e+00       5.412152955844e-11       6.140474853242e-12      -1.089820423035e-14 
   52       1.946987961413e-10       1.784603499525e-14       2.756922274059e-14       0.000000000000e+00       5.186844049513e-11       5.909896627840e-12      -9.401526649844e-15 
   53       1.973536647879e-10       1.894604228206e-14      -1.748423954512e-15       0.000000000000e+00       4.974270555322e-11       5.690734431602e-12      -7.755026031646e-15 
   54       2.000354510635e-10       2.008430219330e-14      -3.271429105008e-14       0.000000000000e+00       4.773148434567e-11       5.482491621634e-12      -6.302653412097e-15 
   55       2.027465286558e-10       2.126081004963e-14      -6.518232685917e-14       0.000000000000e+00       4.582038691903e-11       5.284467432654e-12      -5.357166292825e-15 
   56       2.054886484839e-10       2.247557692433e-14      -9.914796281897e-14       0.000000000000e+00       4.400716031347e-11       5.096579647800e-12      -4.929677256444e-15 
   57       2.082624842085e-10       2.372858585585e-14      -1.346488429698e-13       0.000000000000e+00       4.229079795582e-11       4.918695065114e-12      -4.937039182649e-15 
   58       2.110674043842e-10       2.501977512405e-14      -1.717283446275e-13       0.000000000000e+00       4.066739898320e-11       4.750369786504e-12      -5.277996305037e-15 
   59       2.139013776414e-10       2.634903741165e-14      -2.104359547568e-13       0.000000000000e+00       3.912998948227e-11       4.590830054686e-12      -5.832306522285e-15 
   60       2.167608778677e-10       2.771621896564e-14      -2.508276463439e-13       0.000000000000e+00       3.766834372855e-11       4.438953090119e-12      -6.459863709328e-15 
   61       2.196423730233e-10       2.912106284710e-14      -2.929544105538e-13       0.000000000000e+00       3.627182426053e-11       4.293571304309e-12      -7.029644774520e-15 
   62       2.225473966031e-10       3.056302569235e-14      -3.368239937756e-13       0.000000000000e+00       3.493905144878e-11       4.154508085849e-12      -7.516129092992e-15 
   63       2.254784514422e-10       3.204141814662e-14      -3.824312008406e-13       0.000000000000e+00       3.367009702899e-11       4.021741560552e-12      -7.923062469670e-15 
   64       2.284374828439e-10       3.355545458547e-14      -4.297689819240e-13       0.000000000000e+00       3.246357545895e-11       3.895093004507e-12      -8.255609426310e-15 
   65       2.314258340092e-10       3.510425050223e-14      -4.788284331096e-13       0.000000000000e+00       3.131656094318e-11       3.774217941504e-12      -8.520421829310e-15 
   66       2.344442014651e-10       3.668681989535e-14      -5.295987969556e-13       0.000000000000e+00       3.022450445758e-11       3.658597240460e-12      -8.725707517525e-15 
   67       2.374925904947e-10       3.830207265582e-14      -5.820674630587e-13       0.000000000000e+00       2.918115077407e-11       3.547528212849e-12      -8.881298930073e-15 
   68       2.405707818219e-10       3.994893258706e-14      -6.362199171257e-13       0.000000000000e+00       2.818020927188e-11       3.440321931924e-12      -8.997631376130e-15 
   69       2.436799411065e-10       4.162672507376e-14      -6.920395749399e-13       0.000000000000e+00       2.722094497780e-11       3.336961518315e-12      -9.082284033857e-15 
   70       2.468212570042e-10       4.333486363251e-14      -7.495079156118e-13       0.000000000000e+00       2.630357656257e-11       3.237561860316e-12      -9.142858132443e-15 
   71       2.499954278362e-10       4.507273669369e-14      -8.086045293590e-13       0.000000000000e+00       2.542758535403e-11       3.142171630714e-12      -9.188045307148e-15 
   72       2.532026300928e-10       4.683970807410e-14      -8.693071167531e-13       0.000000000000e+00       2.459167721556e-11       3.050769658431e-12      -9.227668340730e-15 
   73       2.564424869390e-10       4.863511744961e-14      -9.315914879687e-13       0.000000000000e+00       2.379374442471e-11       2.963261300168e-12      -9.272721904851e-15 
   74       2.597140367188e-10       5.045828082780e-14      -9.954315620311e-13       0.000000000000e+00       2.303082755164e-11       2.879474812044e-12      -9.335413301505e-15 
   75       2.630157014600e-10       5.230849102056e-14      -1.060799366064e-12       0.000000000000e+00       2.229907733765e-11       2.799157721242e-12      -9.429203204425e-15 
   76       2.663459310030e-10       5.418485841945e-14      -1.127662139295e-12       0.000000000000e+00       2.159471029340e-11       2.722043665083e-12      -9.564906731774e-15 
   77       2.697053406141e-10       5.608579875596e-14      -1.195973037046e-12       0.000000000000e+00       2.091716094040e-11       2.648075000228e-12      -9.738085777405e-15 
   78       2.730949077669e-10       5.800945235658e-14      -1.265678722331e-12       0.000000000000e+00       2.026643780754e-11       2.577214383946e-12      -9.939420947842e-15 
   79       2.765153137435e-10       5.995383279658e-14      -1.336722051560e-12       0.000000000000e+00       1.964216324924e-11       2.509375759873e-12      -1.015840787465e-14 
   80       2.799669259935e-10       6.191682409791e-14      -1.409042014422e-12       0.000000000000e+00       1.904355570090e-11       2.444422174648e-12      -1.038331716976e-14 
   81       2.834497804931e-10       6.389617792718e-14      -1.482573673763e-12       0.000000000000e+00       1.846941193455e-11       2.382163594545e-12      -1.060115438077e-14 
   82       2.869635641037e-10       6.588951079349e-14      -1.557248105465e-12       0.000000000000e+00       1.791808931432e-11       2.322354722107e-12      -1.079761994628e-14 
   83       2.905075969313e-10       6.789430124637e-14      -1.632992338321e-12       0.000000000000e+00       1.738748805204e-11       2.264692812784e-12      -1.095706915122e-14 
   84       2.940811984525e-10       6.990813907413e-14      -1.709737694617e-12       0.000000000000e+00       1.687556157265e-11       2.208889084883e-12      -1.106575875173e-14 
   85       2.976848942739e-10       7.192952650301e-14      -1.787446532233e-12       0.000000000000e+00       1.638198369178e-11       2.154901333960e-12      -1.112229297158e-14 
   86       3.013193780137e-10       7.395720529997e-14      -1.866089846195e-12       0.000000000000e+00       1.590672657240e-11       2.102736057170e-12      -1.112884386238e-14 
   87       3.049851342961e-10       7.598991799366e-14      -1.945639342022e-12       0.000000000000e+00       1.544954845053e-11       2.052377356044e-12      -1.108803357368e-14 
   88       3.086824275596e-10       7.802640930769e-14      -2.026067516790e-12       0.000000000000e+00       1.500998476661e-11       2.003785989985e-12      -1.100294954635e-14 
   89       3.124112908658e-10       8.006542759379e-14      -2.107347740201e-12       0.000000000000e+00       1.458733929685e-11       1.956898429764e-12      -1.087715970611e-14 
   90       3.161715147086e-10       8.210572626507e-14      -2.189454335647e-12       0.000000000000e+00       1.418067528455e-11       1.911625911020e-12      -1.071472765700e-14 
   91       3.199626358227e-10       8.414606522919e-14      -2.272362661280e-12       0.000000000000e+00       1.378880657145e-11       1.867853487748e-12      -1.052022787476e-14 
   92       3.237839259924e-10       8.618521232160e-14      -2.356049191076e-12       0.000000000000e+00       1.341028872911e-11       1.825439085806e-12      -1.029876090038e-14 
   93       3.276346515394e-10       8.822183442736e-14      -2.440483504844e-12       0.000000000000e+00       1.304376179078e-11       1.784249191595e-12      -1.005548044278e-14 
   94       3.315149207347e-10       9.025414900200e-14      -2.525602704092e-12       0.000000000000e+00       1.268905667493e-11       1.744274113958e-12      -9.794060327409e-15 
   95       3.354249437394e-10       9.228022254537e-14      -2.611333280285e-12       0.000000000000e+00       1.234623954495e-11       1.705528388353e-12      -9.518023994963e-15 
   96       3.393647659062e-10       9.429807616312e-14      -2.697598833459e-12       0.000000000000e+00       1.201527104757e-11       1.668015248608e-12      -9.231220427469e-15 
   97       3.433342603041e-10       9.630568548571e-14      -2.784320042221e-12       0.000000000000e+00       1.169600227058e-11       1.631726183302e-12      -8.937832641824e-15 
   98       3.473331202425e-10       9.830098058734e-14      -2.871414633756e-12       0.000000000000e+00       1.138817070055e-11       1.596640492146e-12      -8.642386183315e-15 
   99       3.513608517961e-10       1.002818459050e-13      -2.958797353825e-12       0.000000000000e+00       1.109139618050e-11       1.562724842364e-12      -8.349757619135e-15 
  100       3.554167663289e-10       1.022461201574e-13      -3.046379936770e-12       0.000000000000e+00       1.080517686763e-11       1.529932825081e-12      -8.065183031910e-15 
  101       3.594999730184e-10       1.041915962641e-13      -3.134071075514e-12       0.000000000000e+00       1.052888519103e-11       1.498204511694e-12      -7.794266513217e-15 
  102       3.636093713805e-10       1.061160212640e-13      -3.221776391564e-12       0.000000000000e+00       1.026176380939e-11       1.467466010266e-12      -7.542988657107e-15 
  103       3.677436437935e-10       1.080170962352e-13      -3.309398405015e-12       0.000000000000e+00       1.000292156871e-11       1.437629021897e-12      -7.317715053626e-15 
  104       3.719015375281e-10       1.098925848886e-13      -3.396843038667e-12       0.000000000000e+00       9.751535528707e-12       1.408610935983e-12      -7.123729318393e-15 
  105       3.760827703271e-10       1.117406562322e-13      -3.484040195633e-12       0.000000000000e+00       9.507496829571e-12       1.380399163022e-12      -6.960588199837e-15 
  106       3.802872337891e-10       1.135595882608e-13      -3.570925918482e-12       0.000000000000e+00       9.270844942579e-12       1.352994705658e-12      -6.826151928008e-15 
  107       3.845147105445e-10       1.153476645136e-13      -3.657436144653e-12       0.000000000000e+00       9.041567636070e-12       1.326392180562e-12      -6.717996020232e-15 
