# dimensionless total [l(l+1)/2pi] C_l's
# for l=2 to 3000, i.e. number of multipoles equal to 2999
#
# -> if you prefer output in CAMB/HealPix/LensPix units/order, set 'format' to 'camb' in input file
# -> if you don't want to see such a header, set 'headers' to 'no' in input file
# -> for CMB lensing (phi), these are C_l^phi-phi for the lensing potential.
#    Remember the conversion factors:
#    C_l^dd (deflection) = l(l+1) C_l^phi-phi
#    C_l^gg (shear/convergence) = 1/4 (l(l+1))^2 C_l^phi-phi
#
# 1:l     2:TT                     3:EE                     4:TE                     5:BB                     6:phiphi                 7:TPhi                   8:Ephi               
    2       1.455568771034e-10       5.903185993324e-15       4.384070772280e-13       0.000000000000e+00       8.563299898799e-09       4.576278986017e-10      -2.261846015102e-12 
    3       1.374138649191e-10       9.668687376105e-15       5.411383312965e-13       0.000000000000e+00       5.274416245280e-09       3.258283845778e-10      -1.951629125015e-12 
    4       1.293896264028e-10       1.091496195366e-14       5.514666612690e-13       0.000000000000e+00       3.654696874931e-09       2.473461641730e-10      -1.525494964273e-12 
    5       1.230706372653e-10       9.738073028010e-15       5.101299294379e-13       0.000000000000e+00       2.717314098997e-09       1.957080456001e-10      -1.104472352765e-12 
    6       1.184662850187e-10       7.233485510691e-15       4.442228718177e-13       0.000000000000e+00       2.114848331392e-09       1.593945574714e-10      -7.296004289149e-13 
    7       1.152276886534e-10       4.623657855235e-15       3.718545996853e-13       0.000000000000e+00       1.701075516893e-09       1.326489085481e-10      -4.208372009899e-13 
    8       1.130711752092e-10       2.677301581633e-15       3.036459984333e-13       0.000000000000e+00       1.402398987744e-09       1.122251297918e-10      -1.856242479444e-13 
    9       1.117525745784e-10       1.585975235751e-15       2.455153841970e-13       0.000000000000e+00       1.178225774414e-09       9.619638869279e-11      -2.296991622560e-14 
   10       1.110569915224e-10       1.143614594506e-15       2.003939728930e-13       0.000000000000e+00       1.004919157107e-09       8.341108610854e-11       7.437125766650e-14 
   11       1.109218951163e-10       1.019776793724e-15       1.689403605504e-13       0.000000000000e+00       8.491233976860e-10       7.347775839726e-11       1.173112373613e-13 
   12       1.111428345483e-10       9.631891329138e-16       1.502445714160e-13       0.000000000000e+00       7.406525257986e-10       6.498125486611e-11       1.210118013248e-13 
   13       1.116300448284e-10       8.725415934539e-16       1.424089945378e-13       0.000000000000e+00       6.517135313800e-10       5.778859746646e-11       9.833743246977e-14 
   14       1.123987633838e-10       7.606825696501e-16       1.427891158996e-13       0.000000000000e+00       5.777918518961e-10       5.166274230532e-11       6.204940798300e-14 
   15       1.133217078991e-10       6.787259328023e-16       1.486576591449e-13       0.000000000000e+00       5.156391923941e-10       4.653276622890e-11       2.264286802971e-14 
   16       1.144303179954e-10       6.577842956025e-16       1.576378673156e-13       0.000000000000e+00       4.628514876552e-10       4.220804845227e-11      -1.238599422635e-14 
   17       1.156577098334e-10       6.920949230740e-16       1.677358682914e-13       0.000000000000e+00       4.176155305224e-10       3.848228757018e-11      -3.841946404549e-14 
   18       1.169691237093e-10       7.523478054185e-16       1.775330242259e-13       0.000000000000e+00       3.783943742417e-10       3.516926373332e-11      -5.353555076501e-14 
   19       1.183923776396e-10       8.205098279453e-16       1.864804953642e-13       0.000000000000e+00       3.445515616686e-10       3.223615695329e-11      -5.810551103264e-14 
   20       1.199084155171e-10       8.840928775736e-16       1.942736569295e-13       0.000000000000e+00       3.147754360996e-10       2.962809076204e-11      -5.413029613029e-14 
   21       1.215032278479e-10       9.537633304145e-16       2.010184990000e-13       0.000000000000e+00       2.885908983888e-10       2.731998033457e-11      -4.421390233132e-14 
   22       1.231346205451e-10       1.048872099187e-15       2.070426092028e-13       0.000000000000e+00       2.653637807875e-10       2.525898450252e-11      -3.175000661405e-14 
   23       1.248120297300e-10       1.178677426178e-15       2.127818760730e-13       0.000000000000e+00       2.447694607524e-10       2.341704717267e-11      -1.926021344462e-14 
   24       1.265388654030e-10       1.347574218782e-15       2.187167926806e-13       0.000000000000e+00       2.263268805808e-10       2.175371119245e-11      -9.092868619502e-15 
   25       1.283114627935e-10       1.551441378496e-15       2.250391997884e-13       0.000000000000e+00       2.098147930753e-10       2.026200224163e-11      -2.375050328728e-15 
   26       1.301110230164e-10       1.782948773820e-15       2.318042095101e-13       0.000000000000e+00       1.949301889766e-10       1.892837142206e-11       3.565817748018e-16 
   27       1.319458972225e-10       2.040405405873e-15       2.388944491873e-13       0.000000000000e+00       1.814925448955e-10       1.772804022892e-11      -4.653550451609e-16 
   28       1.338220237082e-10       2.323587017181e-15       2.460738631633e-13       0.000000000000e+00       1.692685855481e-10       1.662524795952e-11      -3.895368309680e-15 
   29       1.357441144344e-10       2.632524174657e-15       2.530115103978e-13       0.000000000000e+00       1.581937316509e-10       1.561327431102e-11      -8.936866919437e-15 
   30       1.377026892443e-10       2.967081890237e-15       2.592661117403e-13       0.000000000000e+00       1.481463318104e-10       1.468523060754e-11      -1.431386261213e-14 
   31       1.396780791709e-10       3.326832890207e-15       2.643564311669e-13       0.000000000000e+00       1.389183499589e-10       1.382721320430e-11      -1.864697161293e-14 
   32       1.416762055785e-10       3.711258230102e-15       2.680425203339e-13       0.000000000000e+00       1.304608633096e-10       1.303846914378e-11      -2.144051967398e-14 
   33       1.437036557024e-10       4.119582495506e-15       2.701455764427e-13       0.000000000000e+00       1.227132802053e-10       1.231731911437e-11      -2.245703675935e-14 
   34       1.457598507681e-10       4.551509452251e-15       2.705192915741e-13       0.000000000000e+00       1.155661827822e-10       1.165692815429e-11      -2.158012134786e-14 
   35       1.478463151298e-10       5.010031076428e-15       2.692044882026e-13       0.000000000000e+00       1.089819861329e-10       1.105123162338e-11      -1.921633945085e-14 
   36       1.499588877213e-10       5.499666237158e-15       2.663332389524e-13       0.000000000000e+00       1.029066937762e-10       1.049008572575e-11      -1.605184408889e-14 
   37       1.520894149523e-10       6.024838018007e-15       2.620613875671e-13       0.000000000000e+00       9.725991137226e-11       9.961210355758e-12      -1.283101435142e-14 
   38       1.542432497896e-10       6.586643921520e-15       2.564635779193e-13       0.000000000000e+00       9.202634520617e-11       9.464069651515e-12      -9.914136699448e-15 
   39       1.564263817962e-10       7.185028575080e-15       2.496071455539e-13       0.000000000000e+00       8.718880126814e-11       9.000042439081e-12      -7.584070691902e-15 
   40       1.586400770521e-10       7.819620466225e-15       2.415817787790e-13       0.000000000000e+00       8.270037924077e-11       8.568455888109e-12      -6.167700294816e-15 
   41       1.608820782722e-10       8.489958398628e-15       2.324583887622e-13       0.000000000000e+00       7.850065795272e-11       8.167172085294e-12      -5.923675179726e-15 
   42       1.631519458219e-10       9.196312064455e-15       2.221467357506e-13       0.000000000000e+00       7.457680484788e-11       7.795047866780e-12      -6.656125856781e-15 
   43       1.654465656103e-10       9.939091806854e-15       2.104934726012e-13       0.000000000000e+00       7.091800728964e-11       7.449946343206e-12      -7.979091086655e-15 
   44       1.677581680822e-10       1.071861866293e-14       1.973187926071e-13       0.000000000000e+00       6.749714641688e-11       7.127884395206e-12      -9.414771991070e-15 
   45       1.700782139419e-10       1.153517108085e-14       1.824466031056e-13       0.000000000000e+00       6.428037475309e-11       6.824257867269e-12      -1.049616938176e-14 
   46       1.724114023982e-10       1.238915294525e-14       1.658098368214e-13       0.000000000000e+00       6.126231556652e-11       6.538288494580e-12      -1.112469003108e-14 
   47       1.747651536799e-10       1.328096768625e-14       1.473737129205e-13       0.000000000000e+00       5.843918360720e-11       6.269664932929e-12      -1.130999185226e-14 
   48       1.771455188112e-10       1.421096941267e-14       1.271067065192e-13       0.000000000000e+00       5.579817428953e-11       6.017229417269e-12      -1.107172076208e-14 
   49       1.795570171583e-10       1.517946111583e-14       1.049806733611e-13       0.000000000000e+00       5.331679470294e-11       5.778914526681e-12      -1.044018134935e-14 
   50       1.820024644752e-10       1.618666385376e-14       8.098199551733e-14       0.000000000000e+00       5.096957664254e-11       5.552399146345e-12      -9.469982199196e-15 
   51       1.844827789066e-10       1.723261861052e-14       5.514829586024e-14       0.000000000000e+00       4.875191592640e-11       5.337432966597e-12      -8.283782418378e-15 
   52       1.869968415158e-10       1.831725469271e-14       2.754190483006e-14       0.000000000000e+00       4.666154760224e-11       5.134033637222e-12      -7.041578901436e-15 
   53       1.895413421469e-10       1.944041333371e-14      -1.759661524753e-15       0.000000000000e+00       4.469141551930e-11       4.941794023498e-12      -5.930020359458e-15 
   54       1.921106165245e-10       2.060184453182e-14      -3.266305823426e-14       0.000000000000e+00       4.282935072808e-11       4.759852815722e-12      -5.163688560660e-15 
   55       1.946989002118e-10       2.180126691245e-14      -6.508541697806e-14       0.000000000000e+00       4.106174256777e-11       4.587176027034e-12      -4.926482444376e-15 
   56       1.973081193739e-10       2.303857197302e-14      -9.904238910041e-14       0.000000000000e+00       3.938635663814e-11       4.423550708081e-12      -5.175783363210e-15 
   57       1.999417500739e-10       2.431366503854e-14      -1.345808475564e-13       0.000000000000e+00       3.780213777900e-11       4.268786612684e-12      -5.791884476342e-15 
   58       2.026025037402e-10       2.562640599187e-14      -1.717542520919e-13       0.000000000000e+00       3.630533394087e-11       4.122410036029e-12      -6.632595990468e-15 
   59       2.052922584293e-10       2.697660856728e-14      -2.106230558868e-13       0.000000000000e+00       3.488933014402e-11       3.983646536721e-12      -7.532192746095e-15 
   60       2.080119900878e-10       2.836403964406e-14      -2.512551121982e-13       0.000000000000e+00       3.354448243749e-11       3.851403658842e-12      -8.300361803846e-15 
   61       2.107622138328e-10       2.978837991919e-14      -2.937100143795e-13       0.000000000000e+00       3.226077083155e-11       3.724568307783e-12      -8.768039676517e-15 
   62       2.135445790403e-10       3.124909720829e-14      -3.379870884544e-13       0.000000000000e+00       3.103682957976e-11       3.603015965780e-12      -8.939327776178e-15 
   63       2.163605119451e-10       3.274554332276e-14      -3.840663953871e-13       0.000000000000e+00       2.987265842257e-11       3.486798376552e-12      -8.871963677094e-15 
   64       2.192106857036e-10       3.427698828754e-14      -4.319236665076e-13       0.000000000000e+00       2.876690739536e-11       3.375841731151e-12      -8.633867171476e-15 
   65       2.220949678388e-10       3.584261840931e-14      -4.815302003737e-13       0.000000000000e+00       2.771680023136e-11       3.269939373752e-12      -8.303575628775e-15 
   66       2.250123676856e-10       3.744153434460e-14      -5.328527596319e-13       0.000000000000e+00       2.671805776456e-11       3.168744507431e-12      -7.970679354986e-15 
   67       2.279609838357e-10       3.907274916804e-14      -5.858534678788e-13       0.000000000000e+00       2.576482133265e-11       3.071762899950e-12      -7.736256951943e-15 
   68       2.309388832946e-10       4.073524349063e-14      -6.404942944302e-13       0.000000000000e+00       2.485120265251e-11       2.978495816277e-12      -7.688862400447e-15 
   69       2.339470632875e-10       4.242814810208e-14      -6.967517944116e-13       0.000000000000e+00       2.397646934028e-11       2.888918752040e-12      -7.825863055471e-15 
   70       2.369869979389e-10       4.415059503622e-14      -7.546051838384e-13       0.000000000000e+00       2.314077733956e-11       2.803087046125e-12      -8.116871522714e-15 
   71       2.400597314499e-10       4.590166333107e-14      -8.140320299173e-13       0.000000000000e+00       2.234360304450e-11       2.720990846604e-12      -8.526597148348e-15 
   72       2.431658493725e-10       4.768037855606e-14      -8.750082652461e-13       0.000000000000e+00       2.158370830047e-11       2.642551658626e-12      -9.014656102718e-15 
   73       2.463054498836e-10       4.948571233926e-14      -9.375082020121e-13       0.000000000000e+00       2.085910540475e-11       2.567618892324e-12      -9.535381464034e-15 
   74       2.494781150590e-10       5.131658189471e-14      -1.001504546192e-12       0.000000000000e+00       2.016702210725e-11       2.495966410712e-12      -1.003763330206e-14 
   75       2.526828821476e-10       5.317184954957e-14      -1.066968411750e-12       0.000000000000e+00       1.950386661115e-11       2.427289077581e-12      -1.046460876181e-14 
   76       2.559187725135e-10       5.505026402665e-14      -1.133867800931e-12       0.000000000000e+00       1.886611064584e-11       2.361279568125e-12      -1.076675921930e-14 
   77       2.591865533189e-10       5.695027297521e-14      -1.202162693806e-12       0.000000000000e+00       1.825320196259e-11       2.297882602417e-12      -1.094368096493e-14 
   78       2.624872463961e-10       5.887017523649e-14      -1.271809084917e-12       0.000000000000e+00       1.766512182735e-11       2.237081016257e-12      -1.100955393937e-14 
   79       2.658215820677e-10       6.080817441562e-14      -1.342760420772e-12       0.000000000000e+00       1.710149815332e-11       2.178817834258e-12      -1.098078992366e-14 
   80       2.691899818562e-10       6.276237721454e-14      -1.414967582591e-12       0.000000000000e+00       1.656158932750e-11       2.122994463599e-12      -1.087611139402e-14 
   81       2.725925411938e-10       6.473079176486e-14      -1.488378869045e-12       0.000000000000e+00       1.604426803714e-11       2.069468887779e-12      -1.071663037669e-14 
   82       2.760290121315e-10       6.671132596079e-14      -1.562939979012e-12       0.000000000000e+00       1.554800509624e-11       2.018053860361e-12      -1.052592730275e-14 
   83       2.794987860488e-10       6.870178579200e-14      -1.638593994311e-12       0.000000000000e+00       1.507085327211e-11       1.968515098734e-12      -1.033012986293e-14 
   84       2.830012129626e-10       7.070002829113e-14      -1.715284036522e-12       0.000000000000e+00       1.461091540282e-11       1.920627093154e-12      -1.015237110473e-14 
   85       2.865366581490e-10       7.270445316086e-14      -1.792961781279e-12       0.000000000000e+00       1.416787334275e-11       1.874355120750e-12      -9.994935393532e-15 
   86       2.901055898001e-10       7.471358997060e-14      -1.871580330391e-12       0.000000000000e+00       1.374168400905e-11       1.829700234214e-12      -9.854283444774e-15 
   87       2.937082465370e-10       7.672595170596e-14      -1.951091690552e-12       0.000000000000e+00       1.333210971093e-11       1.786643503749e-12      -9.726394538159e-15 
   88       2.973446257765e-10       7.874003570031e-14      -2.031446801027e-12       0.000000000000e+00       1.293871011557e-11       1.745145179140e-12      -9.606750905963e-15 
   89       3.010144720977e-10       8.075432456615e-14      -2.112595561342e-12       0.000000000000e+00       1.256083421390e-11       1.705143851833e-12      -9.490322121342e-15 
   90       3.047172656085e-10       8.276728712662e-14      -2.194486858969e-12       0.000000000000e+00       1.219761228650e-11       1.666555617010e-12      -9.371549486639e-15 
   91       3.084522103125e-10       8.477737934695e-14      -2.277068597014e-12       0.000000000000e+00       1.184794786943e-11       1.629273235663e-12      -9.244330421685e-15 
   92       3.122182224756e-10       8.678304526590e-14      -2.360287721907e-12       0.000000000000e+00       1.151050972006e-11       1.593165296674e-12      -9.102002852112e-15 
   93       3.160142510090e-10       8.878266704001e-14      -2.444088511680e-12       0.000000000000e+00       1.118404444739e-11       1.558108561817e-12      -8.939079677674e-15 
   94       3.198403190073e-10       9.077440445849e-14      -2.528407086188e-12       0.000000000000e+00       1.086838563934e-11       1.524092385516e-12      -8.756784489671e-15 
   95       3.236966180778e-10       9.275633290121e-14      -2.613176118577e-12       0.000000000000e+00       1.056358236014e-11       1.491128523666e-12      -8.558323435367e-15 
   96       3.275831833006e-10       9.472649230511e-14      -2.698326504879e-12       0.000000000000e+00       1.026958842534e-11       1.459218972722e-12      -8.347217620440e-15 
   97       3.314998861527e-10       9.668288739714e-14      -2.783787367825e-12       0.000000000000e+00       9.986258769404e-12       1.428355587269e-12      -8.127311520354e-15 
   98       3.354464274325e-10       9.862348792721e-14      -2.869486060654e-12       0.000000000000e+00       9.713345813226e-12       1.398519697595e-12      -7.902781391719e-15 
   99       3.394223301834e-10       1.005462289011e-13      -2.955348170925e-12       0.000000000000e+00       9.450495831708e-12       1.369681727267e-12      -7.678143683662e-15 
  100       3.434269326183e-10       1.024490108135e-13      -3.041297524329e-12       0.000000000000e+00       9.197245321308e-12       1.341800810698e-12      -7.458263449195e-15 
  101       3.474593810440e-10       1.043296998807e-13      -3.127256188496e-12       0.000000000000e+00       8.953017367596e-12       1.314824410722e-12      -7.248362756580e-15 
  102       3.515186227849e-10       1.061861282738e-13      -3.213144476812e-12       0.000000000000e+00       8.717118012806e-12       1.288687936169e-12      -7.054029100697e-15 
  103       3.556033991077e-10       1.080160943517e-13      -3.298880952225e-12       0.000000000000e+00       8.488732623397e-12       1.263314359432e-12      -6.881223814411e-15 
  104       3.597124957675e-10       1.098174489222e-13      -3.384385152320e-12       0.000000000000e+00       8.267108776989e-12       1.238631974011e-12      -6.734902835012e-15 
  105       3.638455484334e-10       1.115883667969e-13      -3.469586175585e-12       0.000000000000e+00       8.052140883372e-12       1.214631222758e-12      -6.614648696955e-15 
  106       3.680023333796e-10       1.133271125245e-13      -3.554415267526e-12       0.000000000000e+00       7.843858133005e-12       1.191314869079e-12      -6.518461419329e-15 
  107       3.721825153850e-10       1.150319588020e-13      -3.638803236292e-12       0.000000000000e+00       7.642243466189e-12       1.168680361607e-12      -6.444086704786e-15 
