# dimensionless total lensed [l(l+1)/2pi] C_l's
# for l=2 to 2500, i.e. number of multipoles equal to 2499
#
# -> if you prefer output in CAMB/HealPix/LensPix units/order, set 'format' to 'camb' in input file
# -> if you don't want to see such a header, set 'headers' to 'no' in input file
# -> for CMB lensing (phi), these are C_l^phi-phi for the lensing potential.
#    Remember the conversion factors:
#    C_l^dd (deflection) = l(l+1) C_l^phi-phi
#    C_l^gg (shear/convergence) = 1/4 (l(l+1))^2 C_l^phi-phi
#
# 1:l     2:TT                     3:EE                     4:TE                     5:BB                     6:phiphi                 7:TPhi                   8:Ephi               
    2       1.455572682930e-10       5.903353400960e-15       4.384070729310e-13       1.674076024415e-19       8.563299898799e-09       4.576278986017e-10      -2.261846015102e-12 
    3       1.374146452824e-10       9.669022359155e-15       5.411383121716e-13       3.349827157892e-19       5.274416245280e-09       3.258283845778e-10      -1.951629125015e-12 
    4       1.293909225828e-10       1.091552062649e-14       5.514666064100e-13       5.586711890515e-19       3.654696874931e-09       2.473461641730e-10      -1.525494964273e-12 
    5       1.230725733669e-10       9.738911714676e-15       5.101298047289e-13       8.386810413498e-19       2.717314098997e-09       1.957080456001e-10      -1.104472352765e-12 
    6       1.184689820989e-10       7.234660785633e-15       4.442226272182e-13       1.175259605786e-18       2.114848331392e-09       1.593945574714e-10      -7.296004289149e-13 
    7       1.152312642882e-10       4.625226576706e-15       3.718541668662e-13       1.568685805135e-18       1.701075516893e-09       1.326489085481e-10      -4.208372009899e-13 
    8       1.130757431462e-10       2.679320916906e-15       3.036452888044e-13       2.019261579849e-18       1.402398987744e-09       1.122251297918e-10      -1.856242479444e-13 
    9       1.117582444820e-10       1.588502677407e-15       2.455142873481e-13       2.527302800915e-18       1.178225774414e-09       9.619638869279e-11      -2.296991622560e-14 
   10       1.110638688143e-10       1.146707967386e-15       2.003923554565e-13       3.093130018488e-18       1.004919157107e-09       8.341108610854e-11       7.437125766650e-14 
   11       1.109300809107e-10       1.023494252402e-15       1.689380654747e-13       3.717059401500e-18       8.491233976860e-10       7.347775839726e-11       1.173112373613e-13 
   12       1.111524256799e-10       9.675891498412e-16       1.502414176279e-13       4.399394213260e-18       7.406525257986e-10       6.498125486611e-11       1.210118013248e-13 
   13       1.116411339659e-10       8.776829381785e-16       1.424047769552e-13       5.140417144011e-18       6.517135313800e-10       5.778859746646e-11       9.833743246977e-14 
   14       1.124114392201e-10       7.666242797977e-16       1.427836057474e-13       5.940383784355e-18       5.777918518961e-10       5.166274230532e-11       6.204940798300e-14 
   15       1.133360554075e-10       6.855272777206e-16       1.486506045182e-13       6.799517475010e-18       5.156391923941e-10       4.653276622890e-11       2.264286802971e-14 
   16       1.144464187380e-10       6.655047337728e-16       1.576289939282e-13       7.718005710410e-18       4.628514876552e-10       4.220804845227e-11      -1.238599422635e-14 
   17       1.156756423073e-10       7.007940545484e-16       1.677248803480e-13       8.695998208684e-18       4.176155305224e-10       3.848228757018e-11      -3.841946404549e-14 
   18       1.169889637224e-10       7.620853200930e-16       1.775196053877e-13       9.733605879773e-18       3.783943742417e-10       3.516926373332e-11      -5.353555076501e-14 
   19       1.184141986594e-10       8.313454544415e-16       1.864643095663e-13       1.083090634313e-17       3.445515616686e-10       3.223615695329e-11      -5.810551103264e-14 
   20       1.199322890861e-10       8.960863251748e-16       1.942543494941e-13       1.198793810114e-17       3.147754360996e-10       2.962809076204e-11      -5.413029613029e-14 
   21       1.215292238744e-10       9.669742402407e-16       2.009956972366e-13       1.320471690922e-17       2.885908983888e-10       2.731998033457e-11      -4.421390233132e-14 
   22       1.231628076698e-10       1.063359987624e-15       2.070159233498e-13       1.448122887612e-17       2.653637807875e-10       2.525898450252e-11      -3.175000661405e-14 
   23       1.248424755292e-10       1.194501641809e-15       2.127508997026e-13       1.581745008128e-17       2.447694607524e-10       2.341704717267e-11      -1.926021344462e-14 
   24       1.265716366678e-10       1.364793891385e-15       2.186811034512e-13       1.721333963305e-17       2.263268805808e-10       2.175371119245e-11      -9.092868619502e-15 
   25       1.283466255995e-10       1.570115386393e-15       2.249983596957e-13       1.866886268770e-17       2.098147930753e-10       2.026200224163e-11      -2.375050328728e-15 
   26       1.301486428881e-10       1.803135701400e-15       2.317577654950e-13       2.018398200285e-17       1.949301889766e-10       1.892837142206e-11       3.565817748018e-16 
   27       1.319860391035e-10       2.062163518488e-15       2.388419334381e-13       2.175867813819e-17       1.814925448955e-10       1.772804022892e-11      -4.653550451609e-16 
   28       1.338647519902e-10       2.346974229436e-15       2.460147937582e-13       2.339294397462e-17       1.692685855481e-10       1.662524795952e-11      -3.895368309680e-15 
   29       1.357894927123e-10       2.657598044404e-15       2.529453920267e-13       2.508680830103e-17       1.581937316509e-10       1.561327431102e-11      -8.936866919437e-15 
   30       1.377507802557e-10       2.993899593319e-15       2.591924365341e-13       2.684032206018e-17       1.481463318104e-10       1.468523060754e-11      -1.431386261213e-14 
   31       1.397289447251e-10       3.355451194818e-15       2.642746798939e-13       2.865355811629e-17       1.389183499589e-10       1.382721320430e-11      -1.864697161293e-14 
   32       1.417299061909e-10       3.741733497864e-15       2.679521646798e-13       3.052662760313e-17       1.304608633096e-10       1.303846914378e-11      -2.144051967398e-14 
   33       1.437602503784e-10       4.151970667167e-15       2.700460807342e-13       3.245967480583e-17       1.227132802053e-10       1.231731911437e-11      -2.245703675935e-14 
   34       1.458193968179e-10       4.585866028416e-15       2.704101149403e-13       3.445287282782e-17       1.155661827822e-10       1.165692815429e-11      -2.158012134786e-14 
   35       1.479088679005e-10       5.046411101602e-15       2.690850889601e-13       3.650641231166e-17       1.089819861329e-10       1.105123162338e-11      -1.921633945085e-14 
   36       1.500245003424e-10       5.538124283375e-15       2.662030777563e-13       3.862051358850e-17       1.029066937762e-10       1.049008572575e-11      -1.605184408889e-14 
   37       1.521581381435e-10       6.065428157599e-15       2.619199311781e-13       4.079541679115e-17       9.725991137226e-11       9.961210355758e-12      -1.283101435142e-14 
   38       1.543151318922e-10       6.629419662021e-15       2.563103066105e-13       4.303132833261e-17       9.202634520617e-11       9.464069651515e-12      -9.914136699448e-15 
   39       1.565014686202e-10       7.230042820210e-15       2.494415584158e-13       4.532845990826e-17       8.718880126814e-11       9.000042439081e-12      -7.584070691902e-15 
   40       1.587184116399e-10       7.866925487146e-15       2.414033983419e-13       4.768704461817e-17       8.270037924077e-11       8.568455888109e-12      -6.167700294816e-15 
   41       1.609637008038e-10       8.539605780822e-15       2.322667668538e-13       5.010731222329e-17       7.850065795272e-11       8.167172085294e-12      -5.923675179726e-15 
   42       1.632368940433e-10       9.248352571719e-15       2.219414629902e-13       5.258940187880e-17       7.457680484788e-11       7.795047866780e-12      -6.656125856781e-15 
   43       1.655348748782e-10       9.993575301345e-15       2.102741858279e-13       5.513342333646e-17       7.091800728964e-11       7.449946343206e-12      -7.979091086655e-15 
   44       1.678498712560e-10       1.077559404579e-14       1.970851816997e-13       5.773948023223e-17       6.749714641688e-11       7.127884395206e-12      -9.414771991070e-15 
   45       1.701733414500e-10       1.159468620177e-14       1.821984178491e-13       6.040764681346e-17       6.428037475309e-11       6.824257867269e-12      -1.049616938176e-14 
   46       1.725099829068e-10       1.245125441158e-14       1.655468932275e-13       6.313789080929e-17       6.126231556652e-11       6.538288494580e-12      -1.112469003108e-14 
   47       1.748672143266e-10       1.334570073977e-14       1.470959004420e-13       6.593012678998e-17       5.843918360720e-11       6.269664932929e-12      -1.130999185226e-14 
   48       1.772510852758e-10       1.427837783002e-14       1.268139957822e-13       6.878423533003e-17       5.579817428953e-11       6.017229417269e-12      -1.107172076208e-14 
   49       1.796661137368e-10       1.524958710557e-14       1.046731241828e-13       7.170006127369e-17       5.331679470294e-11       5.778914526681e-12      -1.044018134935e-14 
   50       1.821151142213e-10       1.625954794139e-14       8.065976290686e-14       7.467741165935e-17       5.096957664254e-11       5.552399146345e-12      -9.469982199196e-15 
   51       1.845990039927e-10       1.730829949096e-14       5.481162865835e-14       7.771605285283e-17       4.875191592640e-11       5.337432966597e-12      -8.283782418378e-15 
   52       1.871166634392e-10       1.839576910075e-14       2.719115020648e-14       8.081570963777e-17       4.666154760224e-11       5.134033637222e-12      -7.041578901436e-15 
   53       1.896647818827e-10       1.952179591886e-14      -2.124051272210e-15       8.397606377953e-17       4.469141551930e-11       4.941794023498e-12      -5.930020359458e-15 
   54       1.922376946841e-10       2.068612772941e-14      -3.304051870288e-14       8.719675227468e-17       4.282935072808e-11       4.759852815722e-12      -5.163688560660e-15 
   55       1.948296370260e-10       2.188848086259e-14      -6.547526867313e-14       9.047740394807e-17       4.106174256777e-11       4.587176027034e-12      -4.926482444376e-15 
   56       1.974425340813e-10       2.312874460563e-14      -9.944384798481e-14       9.381776390097e-17       3.938635663814e-11       4.423550708081e-12      -5.175783363210e-15 
   57       2.000798607670e-10       2.440682202703e-14      -1.349930251152e-13       9.721759691226e-17       3.780213777900e-11       4.268786612684e-12      -5.791884476342e-15 
   58       2.027443273797e-10       2.572257065719e-14      -1.721761515091e-13       1.006766515484e-16       3.630533394087e-11       4.122410036029e-12      -6.632595990468e-15 
   59       2.054378108568e-10       2.707580178026e-14      -2.110535682071e-13       1.041946599071e-16       3.488933014402e-11       3.983646536721e-12      -7.532192746095e-15 
   60       2.081612860388e-10       2.846627972602e-14      -2.516930124733e-13       1.077713373606e-16       3.354448243749e-11       3.851403658842e-12      -8.300361803846e-15 
   61       2.109152666529e-10       2.989368266550e-14      -2.941539609474e-13       1.114064356985e-16       3.226077083155e-11       3.724568307783e-12      -8.768039676517e-15 
   62       2.137013994395e-10       3.135747631684e-14      -3.384356324733e-13       1.150999170752e-16       3.103682957976e-11       3.603015965780e-12      -8.939327776178e-15 
   63       2.165211074958e-10       3.285701050579e-14      -3.845179824001e-13       1.188518188293e-16       2.987265842257e-11       3.486798376552e-12      -8.871963677094e-15 
   64       2.193750606038e-10       3.439155326899e-14      -4.323766351451e-13       1.226622049393e-16       2.876690739536e-11       3.375841731151e-12      -8.633867171476e-15 
   65       2.222631226651e-10       3.596028892448e-14      -4.819827811399e-13       1.265311674609e-16       2.771680023136e-11       3.269939373752e-12      -8.303575628775e-15 
   66       2.251842991361e-10       3.756231614200e-14      -5.333030737767e-13       1.304588279653e-16       2.671805776456e-11       3.168744507431e-12      -7.970679354986e-15 
   67       2.281366844621e-10       3.919664601350e-14      -5.862995263539e-13       1.344453389768e-16       2.576482133265e-11       3.071762899950e-12      -7.736256951943e-15 
   68       2.311183413265e-10       4.086225727260e-14      -6.409339947948e-13       1.384908770192e-16       2.485120265251e-11       2.978495816277e-12      -7.688862400447e-15 
   69       2.341302627774e-10       4.255827925931e-14      -6.971829109158e-13       1.425956169058e-16       2.397646934028e-11       2.888918752040e-12      -7.825863055471e-15 
   70       2.371739186327e-10       4.428384273275e-14      -7.550253630924e-13       1.467597547990e-16       2.314077733956e-11       2.803087046125e-12      -8.116871522714e-15 
   71       2.402503485541e-10       4.603802554264e-14      -8.144387886022e-13       1.509835173418e-16       2.234360304450e-11       2.720990846604e-12      -8.526597148348e-15 
   72       2.433601333132e-10       4.781985216139e-14      -8.753989878552e-13       1.552671628812e-16       2.158370830047e-11       2.642551658626e-12      -9.014656102718e-15 
   73       2.465033660577e-10       4.962829321605e-14      -9.378801386222e-13       1.596109826909e-16       2.085910540475e-11       2.567618892324e-12      -9.535381464034e-15 
   74       2.496796235782e-10       5.146226502039e-14      -1.001854810264e-12       1.640153021952e-16       2.016702210725e-11       2.495966410712e-12      -1.003763330206e-14 
   75       2.528879375741e-10       5.332062910690e-14      -1.067293977962e-12       1.684804821918e-16       1.950386661115e-11       2.427289077581e-12      -1.046460876181e-14 
   76       2.561273240895e-10       5.520213347565e-14      -1.134165500883e-12       1.730068539159e-16       1.886611064584e-11       2.361279568125e-12      -1.076675921930e-14 
   77       2.593985467972e-10       5.710522500675e-14      -1.202429204849e-12       1.775945078592e-16       1.825320196259e-11       2.297882602417e-12      -1.094368096493e-14 
   78       2.627026245485e-10       5.902820183127e-14      -1.272040924652e-12       1.822434684846e-16       1.766512182735e-11       2.237081016257e-12      -1.100955393937e-14 
   79       2.660402847212e-10       6.096926694345e-14      -1.342953943582e-12       1.869537568372e-16       1.710149815332e-11       2.178817834258e-12      -1.098078992366e-14 
   80       2.694119459315e-10       6.292652653765e-14      -1.415118976153e-12       1.917253904111e-16       1.656158932750e-11       2.122994463599e-12      -1.087611139402e-14 
   81       2.728177007462e-10       6.489798834519e-14      -1.488484150837e-12       1.965583830161e-16       1.604426803714e-11       2.069468887779e-12      -1.071663037669e-14 
   82       2.762572983947e-10       6.688155997124e-14      -1.562994992793e-12       2.014527446437e-16       1.554800509624e-11       2.018053860361e-12      -1.052592730275e-14 
   83       2.797301274810e-10       6.887504723170e-14      -1.638594406599e-12       2.064084813345e-16       1.507085327211e-11       1.968515098734e-12      -1.033012986293e-14 
   84       2.832355352754e-10       7.087630708155e-14      -1.715225340915e-12       2.114256065491e-16       1.461091540282e-11       1.920627093154e-12      -1.015237110473e-14 
   85       2.867738842747e-10       7.288373917213e-14      -1.792839327845e-12       2.165041777425e-16       1.416787334275e-11       1.874355120750e-12      -9.994935393532e-15 
   86       2.903456399154e-10       7.489587311329e-14      -1.871389334142e-12       2.216442656370e-16       1.374168400905e-11       1.829700234214e-12      -9.854283444774e-15 
   87       2.939510381071e-10       7.691122204855e-14      -1.950827232537e-12       2.268459433147e-16       1.333210971093e-11       1.786643503749e-12      -9.726394538159e-15 
   88       2.975900736022e-10       7.892828359019e-14      -2.031103829544e-12       2.321092862776e-16       1.293871011557e-11       1.745145179140e-12      -9.606750905963e-15 
   89       3.012624883641e-10       8.094554075426e-14      -2.112168893270e-12       2.374343725077e-16       1.256083421390e-11       1.705143851833e-12      -9.490322121342e-15 
   90       3.049677599363e-10       8.296146289570e-14      -2.193971181214e-12       2.428212825266e-16       1.219761228650e-11       1.666555617010e-12      -9.371549486639e-15 
   91       3.087050898115e-10       8.497450664332e-14      -2.276458468078e-12       2.482700994556e-16       1.184794786943e-11       1.629273235663e-12      -9.244330421685e-15 
   92       3.124733918000e-10       8.698311683491e-14      -2.359577573570e-12       2.537809090757e-16       1.151050972006e-11       1.593165296674e-12      -9.102002852112e-15 
   93       3.162716119168e-10       8.898567681842e-14      -2.443272658413e-12       2.593538766897e-16       1.118404444739e-11       1.558108561817e-12      -8.939079677674e-15 
   94       3.200997683399e-10       9.098034877413e-14      -2.527479758820e-12       2.649894908020e-16       1.086838563934e-11       1.524092385516e-12      -8.756784489671e-15 
   95       3.239580470845e-10       9.296521099398e-14      -2.612131477590e-12       2.706883563698e-16       1.056358236014e-11       1.491128523666e-12      -8.558323435367e-15 
   96       3.278464774362e-10       9.493830661245e-14      -2.697158646637e-12       2.764511223654e-16       1.026958842534e-11       1.459218972722e-12      -8.347217620440e-15 
   97       3.317649248704e-10       9.689764384653e-14      -2.782490331028e-12       2.822784828904e-16       9.986258769404e-12       1.428355587269e-12      -8.127311520354e-15 
   98       3.357130839719e-10       9.884119623577e-14      -2.868053833013e-12       2.881711782897e-16       9.713345813226e-12       1.398519697595e-12      -7.902781391719e-15 
   99       3.396904713545e-10       1.007669028823e-13      -2.953774696058e-12       2.941299962660e-16       9.450495831708e-12       1.369681727267e-12      -7.678143683662e-15 
  100       3.436964185806e-10       1.026726686907e-13      -3.039576708880e-12       3.001557729939e-16       9.197245321308e-12       1.341800810698e-12      -7.458263449195e-15 
  101       3.477300650805e-10       1.045563646083e-13      -3.125381909482e-12       3.062493942339e-16       8.953017367596e-12       1.314824410722e-12      -7.248362756580e-15 
  102       3.517903510723e-10       1.064158278650e-13      -3.211110589183e-12       3.124117964465e-16       8.717118012806e-12       1.288687936169e-12      -7.054029100697e-15 
  103       3.558760104811e-10       1.082488622132e-13      -3.296681296652e-12       3.186439679069e-16       8.488732623397e-12       1.263314359432e-12      -6.881223814411e-15 
  104       3.599858221428e-10       1.100533241798e-13      -3.382013555448e-12       3.249468555271e-16       8.267108776989e-12       1.238631974011e-12      -6.734902835012e-15 
  105       3.641194173104e-10       1.118273945733e-13      -3.467036426024e-12       3.313210685905e-16       8.052140883372e-12       1.214631222758e-12      -6.614648696955e-15 
  106       3.682765685380e-10       1.135693442719e-13      -3.551681113225e-12       3.377671368870e-16       7.843858133005e-12       1.191314869079e-12      -6.518461419329e-15 
  107       3.724569369465e-10       1.152774526570e-13      -3.635878389517e-12       3.442856015079e-16       7.642243466189e-12       1.168680361607e-12      -6.444086704786e-15 
