# Matter power spectrum P(k) at redshift z=0
# for k=1.05647e-05 to 34.5534 h/Mpc,
# number of wavenumbers equal to 621
#    1:k (h/Mpc)              2:P (Mpc/h)^3        
       1.056473425813e-05       1.084839868167e+06 
       2.342702558486e-05       2.285521420441e+06 
       3.633476487763e-05       3.398960782832e+06 
       4.932258173529e-05       4.413671068383e+06 
       6.242567992675e-05       5.311750697985e+06 
       7.568015038812e-05       6.074087889477e+06 
       8.912329424072e-05       6.682262603978e+06 
       1.027939601131e-04       7.119417276001e+06 
       1.167329000834e-04       7.371404851131e+06 
       1.309831485914e-04       7.427675945835e+06 
       1.455904286757e-04       7.281934919487e+06 
       1.606035898343e-04       6.935676171422e+06 
       1.760750816275e-04       6.396671805478e+06 
       1.920614667808e-04       5.682719956119e+06 
       2.086239768934e-04       4.823105311075e+06 
       2.258291127963e-04       3.860395267494e+06 
       2.437492899608e-04       2.851944913346e+06 
       2.624635269201e-04       1.870651710153e+06 
       2.820581711641e-04       1.004291476195e+06 
       3.026276520758e-04       3.526653972584e+05 
       3.242752438250e-04       2.145162823602e+04 
       3.471138123205e-04       1.115903524891e+05 
       3.712665089755e-04       7.032961083912e+05 
       3.968673599041e-04       1.834317682560e+06 
       4.240616822609e-04       3.473800544470e+06 
       4.530062402672e-04       5.495865452922e+06 
       4.838690333622e-04       7.661002459921e+06 
       5.168285903535e-04       9.618465770889e+06 
       5.520726304511e-04       1.094563502474e+07 
       5.897959503855e-04       1.123798229949e+07 
       6.301974137077e-04       1.024853094781e+07 
       6.734759616794e-04       8.044536918674e+06 
       7.198256413193e-04       5.106755571222e+06 
       7.694297571003e-04       2.267817886487e+06 
       8.224543922027e-04       4.183310793412e+05 
       8.790416955600e-04       4.320010729303e+04 
       9.393034630726e-04       8.521909359884e+05 
       1.003315619058e-03       1.867354717228e+06 
       1.071114193803e-03       2.093475227607e+06 
       1.142693277177e-03       1.334084135678e+06 
       1.218005215471e-03       3.441222064057e+05 
       1.296963046429e-03       5.031132538990e+03 
       1.379444893270e-03       3.548421816395e+05 
       1.465299821025e-03       6.682610264097e+05 
       1.554354538901e-03       4.829114050365e+05 
       1.646420322682e-03       1.143474089603e+05 
       1.741299614676e-03       2.090535014544e+03 
       1.838791900592e-03       6.892713591552e+04 
       1.938698623803e-03       5.508551872221e+04 
       2.040827045707e-03       1.112277079670e+03 
       2.144993077088e-03       3.322999512245e+04 
       2.251023182815e-03       7.629371082385e+04 
       2.358755503626e-03       4.822487454491e+04 
       2.468040351811e-03       8.260842098176e+03 
       2.578740231260e-03       1.005389469554e+00 
       2.690729515007e-03       2.628376907003e+01 
       2.803893891071e-03       5.846964188173e+03 
       2.918129664539e-03       2.030192656665e+04 
       3.033342982805e-03       2.361631269406e+04 
       3.149449032877e-03       1.404442889380e+04 
       3.266371245033e-03       6.924034629214e+03 
       3.384040525711e-03       4.968988030624e+03 
       3.502394533865e-03       4.227619952387e+03 
       3.621377008742e-03       4.452742246385e+03 
       3.740937152551e-03       5.423778988248e+03 
       3.861029068429e-03       6.733141035449e+03 
       3.981611252096e-03       8.005078474463e+03 
       4.102646134344e-03       9.069469676957e+03 
       4.224099670807e-03       9.933473271568e+03 
       4.345940975116e-03       1.065797443944e+04 
       4.468141991504e-03       1.128414282367e+04 
       4.590677202998e-03       1.182886830299e+04 
       4.713523371539e-03       1.230213280720e+04 
       4.836659306637e-03       1.271723630412e+04 
       4.960065659440e-03       1.308901193467e+04 
       5.083724739390e-03       1.342940213444e+04 
       5.207620350920e-03       1.374578417964e+04 
       5.331737647914e-03       1.404247544931e+04 
       5.456063003901e-03       1.432275037372e+04 
       5.580583896182e-03       1.458954868146e+04 
       5.705288802298e-03       1.484541805661e+04 
       5.830167107422e-03       1.509217915599e+04 
       5.955209021442e-03       1.533100049785e+04 
       6.080405504627e-03       1.556268788340e+04 
       6.205748200911e-03       1.578794674633e+04 
       6.331229377951e-03       1.600735157919e+04 
       6.456841873192e-03       1.622142799240e+04 
       6.582579045290e-03       1.643051166358e+04 
       6.708434730295e-03       1.663482653636e+04 
       6.834403202094e-03       1.683458631097e+04 
       6.960479136640e-03       1.702994085673e+04 
       7.086657579574e-03       1.722110172284e+04 
       7.212933916888e-03       1.740813588568e+04 
       7.339303848293e-03       1.759116369765e+04 
       7.465763363040e-03       1.777024879639e+04 
       7.592308717916e-03       1.794546125819e+04 
       7.718936417220e-03       1.811686946439e+04 
       7.845643194504e-03       1.828453047572e+04 
       7.972425995908e-03       1.844850203301e+04 
       8.099281964947e-03       1.860881186913e+04 
       8.226208428586e-03       1.876550550770e+04 
       8.353202884500e-03       1.891861673894e+04 
       8.480262989399e-03       1.906820342246e+04 
       8.607386548315e-03       1.921428590726e+04 
       8.734571504770e-03       1.935690064316e+04 
       8.861815931739e-03       1.949607884348e+04 
       8.989118023339e-03       1.963185864722e+04 
       9.116476087172e-03       1.976426947596e+04 
       9.243888537278e-03       1.989333830822e+04 
       9.371353887630e-03       2.001910810563e+04 
       9.498870746135e-03       2.014160241238e+04 
       9.626437809089e-03       2.026085907687e+04 
       9.754053856055e-03       2.037690229116e+04 
       9.881717745128e-03       2.048977815122e+04 
       1.000942840854e-02       2.059949583392e+04 
       1.013718484862e-02       2.070610446614e+04 
       1.026498613399e-02       2.080963695844e+04 
       1.039283139612e-02       2.091012051955e+04 
       1.052071982608e-02       2.100758632357e+04 
       1.064865067150e-02       2.110207173212e+04 
       1.077662323383e-02       2.119360704744e+04 
       1.090463686571e-02       2.128222260732e+04 
       1.103269096858e-02       2.136795894870e+04 
       1.116078499046e-02       2.145082942876e+04 
       1.128891842380e-02       2.153088862417e+04 
       1.141709080364e-02       2.160815207442e+04 
       1.154530170572e-02       2.168266900626e+04 
       1.167355074488e-02       2.175445963363e+04 
       1.180183757345e-02       2.182356424508e+04 
       1.193016187980e-02       2.188999907526e+04 
       1.205852338705e-02       2.195381522830e+04 
       1.218692185174e-02       2.201504711397e+04 
       1.231535706272e-02       2.207369988622e+04 
       1.244382884004e-02       2.212984356343e+04 
       1.257233703396e-02       2.218348673983e+04 
       1.270088152401e-02       2.223466437047e+04 
       1.282946221810e-02       2.228341637538e+04 
       1.295807905178e-02       2.232975859453e+04 
       1.308673198742e-02       2.237374576128e+04 
       1.321542101359e-02       2.241539549867e+04 
       1.334414614438e-02       2.245473400834e+04 
       1.347290741885e-02       2.249180667223e+04 
       1.360170490045e-02       2.252663086468e+04 
       1.373053867659e-02       2.255925569422e+04 
       1.385940885813e-02       2.258968924142e+04 
       1.398831557901e-02       2.261798338623e+04 
       1.411725899584e-02       2.264414979769e+04 
       1.424623928760e-02       2.266822726336e+04 
       1.437525665533e-02       2.269025473888e+04 
       1.450431132182e-02       2.271024487064e+04 
       1.463340353142e-02       2.272823896334e+04 
       1.476253354982e-02       2.274426419496e+04 
       1.489170166384e-02       2.275835601383e+04 
       1.502090818131e-02       2.277053296428e+04 
       1.515015343092e-02       2.278083076210e+04 
       1.527943776212e-02       2.278928117682e+04 
       1.540876154504e-02       2.279591138088e+04 
       1.553812517046e-02       2.280074717240e+04 
       1.566752904973e-02       2.280380872961e+04 
       1.579697361479e-02       2.280513956377e+04 
       1.592645931818e-02       2.280475071392e+04 
       1.605598663305e-02       2.280267531930e+04 
       1.618555605322e-02       2.279893131475e+04 
       1.631516809325e-02       2.279357472561e+04 
       1.644482328855e-02       2.278659439253e+04 
       1.657452219543e-02       2.277804251375e+04 
       1.670426539129e-02       2.276795324166e+04 
       1.683405347470e-02       2.275631305997e+04 
       1.696388706564e-02       2.274319822840e+04 
       1.709376680557e-02       2.272858487691e+04 
       1.722369335775e-02       2.271253192378e+04 
       1.735366740733e-02       2.269505052873e+04 
       1.748368966168e-02       2.267617545613e+04 
       1.761376085058e-02       2.265591967529e+04 
       1.774388172648e-02       2.263431827988e+04 
       1.787405306480e-02       2.261137050567e+04 
       1.800427566425e-02       2.258713414088e+04 
       1.813455034707e-02       2.256161810729e+04 
       1.826487795941e-02       2.253483051393e+04 
       1.839525937170e-02       2.250683337334e+04 
       1.852569547893e-02       2.247760616614e+04 
       1.865618720111e-02       2.244719013655e+04 
       1.878673548362e-02       2.241561818596e+04 
       1.891734129765e-02       2.238289177781e+04 
       1.904800564060e-02       2.234904589727e+04 
       1.917872953656e-02       2.231412074081e+04 
       1.930951403675e-02       2.227807019915e+04 
       1.944036022004e-02       2.224099678358e+04 
       1.957126919339e-02       2.220286961006e+04 
       1.970224209245e-02       2.216373311426e+04 
       1.983328008202e-02       2.212358680796e+04 
       1.996438435668e-02       2.208246586313e+04 
       2.009555614131e-02       2.204039471290e+04 
       2.022679669172e-02       2.199738786163e+04 
       2.035810729529e-02       2.195346917444e+04 
       2.048948927155e-02       2.190863886652e+04 
       2.062094397288e-02       2.186294270845e+04 
       2.075247278519e-02       2.181638469634e+04 
       2.088407712863e-02       2.176899524892e+04 
       2.101575845831e-02       2.172076669989e+04 
       2.114751826504e-02       2.167173928697e+04 
       2.127935807611e-02       2.162190846987e+04 
       2.141127945613e-02       2.157133210366e+04 
       2.154328400780e-02       2.151998293764e+04 
       2.167537337279e-02       2.146793139374e+04 
       2.180754923261e-02       2.141514388459e+04 
       2.193981330953e-02       2.136167612736e+04 
       2.207216736751e-02       2.130747977933e+04 
       2.220461321313e-02       2.125266063070e+04 
       2.233715269666e-02       2.119713147423e+04 
       2.246978771299e-02       2.114102959984e+04 
       2.260252020279e-02       2.108428455559e+04 
       2.273535215350e-02       2.102694305504e+04 
       2.286828560053e-02       2.096901477579e+04 
       2.300132262838e-02       2.091052549635e+04 
       2.313446537186e-02       2.085142252005e+04 
       2.326771601730e-02       2.079184609426e+04 
       2.340107680384e-02       2.073171547121e+04 
       2.353455002474e-02       2.067109279391e+04 
       2.366813802873e-02       2.060995765142e+04 
       2.380184322141e-02       2.054830212721e+04 
       2.393566806670e-02       2.048621998473e+04 
       2.406961508831e-02       2.042364697977e+04 
       2.420368687129e-02       2.036067584139e+04 
       2.433788606360e-02       2.029723819197e+04 
       2.447221537779e-02       2.023341210146e+04 
       2.460667759263e-02       2.016914822876e+04 
       2.474127555489e-02       2.010449527470e+04 
       2.487601218114e-02       2.003946717449e+04 
       2.501089045959e-02       1.997409405946e+04 
       2.514591345205e-02       1.990832893417e+04 
       2.528108429588e-02       1.984223672948e+04 
       2.541640620607e-02       1.977581362083e+04 
       2.555188247734e-02       1.970908206957e+04 
       2.568751648636e-02       1.964206496839e+04 
       2.582331169398e-02       1.957468819599e+04 
       2.595927164762e-02       1.950709792088e+04 
       2.609539998367e-02       1.943913559904e+04 
       2.623170042999e-02       1.937096452976e+04 
       2.636817680855e-02       1.930254610108e+04 
       2.650483303808e-02       1.923387432630e+04 
       2.664167313685e-02       1.916499292301e+04 
       2.677870122559e-02       1.909583563390e+04 
       2.691592153044e-02       1.902649552373e+04 
       2.705333838606e-02       1.895697188831e+04 
       2.719095623882e-02       1.888722891711e+04 
       2.732877965014e-02       1.881727124965e+04 
       2.746681329992e-02       1.874717313223e+04 
       2.760506199009e-02       1.867686660073e+04 
       2.774353064836e-02       1.860643407315e+04 
       2.788222433201e-02       1.853586479390e+04 
       2.802114823192e-02       1.846514245794e+04 
       2.816030767666e-02       1.839427857508e+04 
       2.829970813683e-02       1.832327682857e+04 
       2.843935522949e-02       1.825217536263e+04 
       2.857925472282e-02       1.818094987308e+04 
       2.871941254090e-02       1.810960712172e+04 
       2.885983476876e-02       1.803817324298e+04 
       2.900052765755e-02       1.796667546999e+04 
       2.914149762997e-02       1.789509630094e+04 
       2.928275128589e-02       1.782342235978e+04 
       2.942429540822e-02       1.775168560139e+04 
       2.956613696904e-02       1.767988758561e+04 
       2.970828313589e-02       1.760801189267e+04 
       2.985074127846e-02       1.753610707979e+04 
       2.999351897543e-02       1.746417297799e+04 
       3.013662402172e-02       1.739217237289e+04 
       3.028006443593e-02       1.732016346305e+04 
       3.042384846821e-02       1.724804330050e+04 
       3.056798460842e-02       1.717603791833e+04 
       3.071248159462e-02       1.710396173488e+04 
       3.085734842201e-02       1.703182581458e+04 
       3.100259435221e-02       1.695974478296e+04 
       3.114822892300e-02       1.688762602675e+04 
       3.129426195843e-02       1.681553659189e+04 
       3.144070357953e-02       1.674342563230e+04 
       3.158756421536e-02       1.667132143112e+04 
       3.173485461470e-02       1.659924416217e+04 
       3.188258585820e-02       1.652721515395e+04 
       3.203076937122e-02       1.645526028193e+04 
       3.217941693716e-02       1.638318483711e+04 
       3.232854071151e-02       1.631119237099e+04 
       3.247815323664e-02       1.623923462607e+04 
       3.262826745717e-02       1.616737692918e+04 
       3.277889673629e-02       1.609553968569e+04 
       3.293005487279e-02       1.602371258848e+04 
       3.308175611895e-02       1.595192501174e+04 
       3.323401519946e-02       1.588018216723e+04 
       3.338684733124e-02       1.580850771813e+04 
       3.354026824428e-02       1.573694106553e+04 
       3.369429420370e-02       1.566533144565e+04 
       3.384894203292e-02       1.559380447173e+04 
       3.400422913806e-02       1.552234458037e+04 
       3.416017353376e-02       1.545097093253e+04 
       3.431679387042e-02       1.537961785726e+04 
       3.447410946291e-02       1.530833961593e+04 
       3.463214032098e-02       1.523710117482e+04 
       3.479090718137e-02       1.516597077379e+04 
       3.495043154185e-02       1.509488823654e+04 
       3.511073569716e-02       1.502389705160e+04 
       3.527184277721e-02       1.495289919974e+04 
       3.543377678748e-02       1.488200535825e+04 
       3.559656265190e-02       1.481120309695e+04 
       3.576022625845e-02       1.474045112816e+04 
       3.592479450748e-02       1.466974142620e+04 
       3.609029536320e-02       1.459912791008e+04 
       3.625675790835e-02       1.452855959672e+04 
       3.642421240251e-02       1.445803451125e+04 
       3.659269034419e-02       1.438758504332e+04 
       3.676222453700e-02       1.431720662096e+04 
       3.693284916036e-02       1.424686404277e+04 
       3.710459984493e-02       1.417657969730e+04 
       3.727751375336e-02       1.410638125822e+04 
       3.745162966655e-02       1.403620510882e+04 
       3.762698807621e-02       1.396610744043e+04 
       3.780363128387e-02       1.389602279178e+04 
       3.798160350728e-02       1.382601734919e+04 
       3.816095099461e-02       1.375602514425e+04 
       3.834172214722e-02       1.368607139655e+04 
       3.852396765174e-02       1.361615186477e+04 
       3.870774062246e-02       1.354628279582e+04 
       3.889309675475e-02       1.347639034992e+04 
       3.908009449079e-02       1.340658455855e+04 
       3.926879519862e-02       1.333674061192e+04 
       3.945926336594e-02       1.326693726305e+04 
       3.965156681007e-02       1.319714922141e+04 
       3.984577690560e-02       1.312730314896e+04 
       4.004196883176e-02       1.305750218785e+04 
       4.024022184136e-02       1.298766459956e+04 
       4.044061955366e-02       1.291781187638e+04 
       4.064325027381e-02       1.284792729975e+04 
       4.084820734158e-02       1.277798993990e+04 
       4.105558951286e-02       1.270799018249e+04 
       4.126550137749e-02       1.263797447852e+04 
       4.147805381763e-02       1.256787022338e+04 
       4.169336451150e-02       1.249769007838e+04 
       4.191155848781e-02       1.242742389484e+04 
       4.213276873707e-02       1.235708073508e+04 
       4.235713688697e-02       1.228657264843e+04 
       4.258481394966e-02       1.221599177411e+04 
       4.281596115050e-02       1.214527141693e+04 
       4.305075084874e-02       1.207435634439e+04 
       4.328936756262e-02       1.200330281034e+04 
       4.353200911309e-02       1.193201155211e+04 
       4.377888790284e-02       1.186057761103e+04 
       4.403023234979e-02       1.178887097896e+04 
       4.428628849780e-02       1.171694873671e+04 
       4.454732183077e-02       1.164470352665e+04 
       4.481361932132e-02       1.157220200966e+04 
       4.508549175064e-02       1.149936109861e+04 
       4.536327634260e-02       1.142614441904e+04 
       4.564733976364e-02       1.135261831951e+04 
       4.593808154955e-02       1.127863469056e+04 
       4.623593803226e-02       1.120418532204e+04 
       4.654138685452e-02       1.112925203427e+04 
       4.685495217815e-02       1.105381131869e+04 
       4.717721071406e-02       1.097775485291e+04 
       4.750879872946e-02       1.090110583885e+04 
       4.785042022218e-02       1.082372194072e+04 
       4.820285649468e-02       1.074561491397e+04 
       4.856697741405e-02       1.066665887825e+04 
       4.894375471209e-02       1.058681237614e+04 
       4.933427776471e-02       1.050597322476e+04 
       4.973977239865e-02       1.042407275608e+04 
       5.016162341123e-02       1.034096052234e+04 
       5.060140166449e-02       1.025655801127e+04 
       5.106089683913e-02       1.017066929551e+04 
       5.154215721872e-02       1.008315674120e+04 
       5.204753823639e-02       9.993824989192e+03 
       5.257976197059e-02       9.902507813377e+03 
       5.314199034005e-02       9.808867242015e+03 
       5.373791542608e-02       9.712632056443e+03 
       5.437187112827e-02       9.613458448837e+03 
       5.504897116612e-02       9.510872896956e+03 
       5.577527908755e-02       9.404377325446e+03 
       5.655801600950e-02       9.293291771216e+03 
       5.740581040373e-02       9.176811725657e+03 
       5.832898957742e-02       9.053925699213e+03 
       5.933990124552e-02       8.923351696538e+03 
       6.045322987547e-02       8.783423184122e+03 
       6.168622706597e-02       8.632107009335e+03 
