# dimensionless total [l(l+1)/2pi] C_l's
# for l=2 to 3500, i.e. number of multipoles equal to 3499
#
# -> if you prefer output in CAMB/HealPix/LensPix units/order, set 'format' to 'camb' in input file
# -> if you don't want to see such a header, set 'headers' to 'no' in input file
# -> for CMB lensing (phi), these are C_l^phi-phi for the lensing potential.
#    Remember the conversion factors:
#    C_l^dd (deflection) = l(l+1) C_l^phi-phi
#    C_l^gg (shear/convergence) = 1/4 (l(l+1))^2 C_l^phi-phi
#
# 1:l     2:TT                     3:EE                     4:TE                     5:BB                     6:phiphi                 7:TPhi                   8:Ephi               
    2       1.321402742744e-10       6.364394024355e-15       4.035645334381e-13       0.000000000000e+00       8.055182886652e-09       4.661257193223e-10      -2.177581128582e-12 
    3       1.250036169881e-10       1.000553120751e-14       4.988433785085e-13       0.000000000000e+00       4.989087565716e-09       3.332457311355e-10      -1.859288448523e-12 
    4       1.180058990168e-10       1.073249796708e-14       5.055798842178e-13       0.000000000000e+00       3.493027149851e-09       2.543325265001e-10      -1.417568148372e-12 
    5       1.126175695903e-10       9.003561699121e-15       4.627721744467e-13       0.000000000000e+00       2.621970434325e-09       2.022533596235e-10      -9.847682810356e-13 
    6       1.087920664055e-10       6.232453507460e-15       3.970468116292e-13       0.000000000000e+00       2.057696413339e-09       1.654262668259e-10      -6.078239814938e-13 
    7       1.062329111882e-10       3.714957265758e-15       3.263573175966e-13       0.000000000000e+00       1.666681539628e-09       1.381679628366e-10      -3.080759200082e-13 
    8       1.047437308741e-10       2.075540537780e-15       2.611466605804e-13       0.000000000000e+00       1.381932722627e-09       1.173539942947e-10      -9.178700653134e-14 
    9       1.039876819495e-10       1.296229587371e-15       2.073410330200e-13       0.000000000000e+00       1.166644598746e-09       1.010835473983e-10       4.507039391078e-14 
   10       1.038491147128e-10       1.035432336876e-15       1.676346788230e-13       0.000000000000e+00       9.992700099053e-10       8.809544488523e-11       1.137613419227e-13 
   11       1.041587861721e-10       9.499838622276e-16       1.420967929227e-13       0.000000000000e+00       8.440557155266e-10       7.777391244710e-11       1.297073086100e-13 
   12       1.048090298681e-10       8.590908503280e-16       1.290892694858e-13       0.000000000000e+00       7.391046955091e-10       6.877471375006e-11       1.103586534259e-13 
   13       1.057324351739e-10       7.408127445205e-16       1.260164619885e-13       0.000000000000e+00       6.527486572873e-10       6.148484446167e-11       7.220975839597e-14 
   14       1.068931451985e-10       6.437849922413e-16       1.297838962398e-13       0.000000000000e+00       5.807562477235e-10       5.536429135681e-11       2.842999332087e-14 
   15       1.082148842583e-10       6.053380069893e-16       1.374201131140e-13       0.000000000000e+00       5.200394954154e-10       5.004783573534e-11      -1.106667306865e-14 
   16       1.096652821636e-10       6.214458181542e-16       1.465631202734e-13       0.000000000000e+00       4.683190157467e-10       4.546421135026e-11      -3.997357003148e-14 
   17       1.112254643659e-10       6.624224138187e-16       1.556134503543e-13       0.000000000000e+00       4.238734358241e-10       4.147835219255e-11      -5.592184622062e-14 
   18       1.129048389212e-10       7.012327021206e-16       1.636581432182e-13       0.000000000000e+00       3.852340944805e-10       3.800868276166e-11      -5.958831012287e-14 
   19       1.146919701438e-10       7.383650497995e-16       1.705369954714e-13       0.000000000000e+00       3.518069047739e-10       3.498732241386e-11      -5.342988721257e-14 
   20       1.165158044516e-10       7.849206130967e-16       1.763877257939e-13       0.000000000000e+00       3.223230648107e-10       3.226369566529e-11      -4.149736597709e-14 
   21       1.183941022413e-10       8.555917858812e-16       1.816772877226e-13       0.000000000000e+00       2.963314914505e-10       2.980887981709e-11      -2.730257950451e-14 
   22       1.203429561542e-10       9.650773816491e-16       1.870366759617e-13       0.000000000000e+00       2.732212227189e-10       2.759939560297e-11      -1.452071422950e-14 
   23       1.223540709675e-10       1.112295610032e-15       1.928522685377e-13       0.000000000000e+00       2.526824654861e-10       2.563303826767e-11      -5.119523956830e-15 
   24       1.243944186714e-10       1.289839355746e-15       1.993970341091e-13       0.000000000000e+00       2.342484243327e-10       2.388785878107e-11      -3.263726821392e-16 
   25       1.264748490595e-10       1.493814385356e-15       2.066783277008e-13       0.000000000000e+00       2.177074341302e-10       2.233443937291e-11       3.516365433954e-17 
   26       1.286041032097e-10       1.721183862929e-15       2.145198073176e-13       0.000000000000e+00       2.027651486453e-10       2.092468241156e-11      -3.086313235187e-15 
   27       1.307757408153e-10       1.972083056881e-15       2.224870542451e-13       0.000000000000e+00       1.892467045442e-10       1.963403200838e-11      -8.307665216187e-15 
   28       1.329709272707e-10       2.247134994940e-15       2.300181601494e-13       0.000000000000e+00       1.769235967143e-10       1.843803406684e-11      -1.396766097039e-14 
   29       1.351972151410e-10       2.545038107825e-15       2.367333851656e-13       0.000000000000e+00       1.657352189724e-10       1.733744393324e-11      -1.903040283105e-14 
   30       1.374601359952e-10       2.863335503600e-15       2.422537373484e-13       0.000000000000e+00       1.555635182571e-10       1.633238994350e-11      -2.249359822634e-14 
   31       1.397553816107e-10       3.199938597317e-15       2.462046876084e-13       0.000000000000e+00       1.462036764100e-10       1.541424085251e-11      -2.343681976214e-14 
   32       1.420849691685e-10       3.557434522992e-15       2.485007154647e-13       0.000000000000e+00       1.376090648418e-10       1.457628093884e-11      -2.207274649198e-14 
   33       1.444446084174e-10       3.940473814578e-15       2.491702808438e-13       0.000000000000e+00       1.297206380962e-10       1.380521063811e-11      -1.911063447966e-14 
   34       1.468234353964e-10       4.353883444305e-15       2.482940623882e-13       0.000000000000e+00       1.224300238278e-10       1.308318833853e-11      -1.540722557782e-14 
   35       1.492223781405e-10       4.799707560189e-15       2.460327941788e-13       0.000000000000e+00       1.157009037969e-10       1.240797794831e-11      -1.162916021274e-14 
   36       1.516405794919e-10       5.279154983060e-15       2.426163608787e-13       0.000000000000e+00       1.094801580565e-10       1.177890391897e-11      -8.493093813520e-15 
   37       1.540739696384e-10       5.793244544054e-15       2.382713557939e-13       0.000000000000e+00       1.036878727500e-10       1.119274603965e-11      -6.674115911288e-15 
   38       1.565298027011e-10       6.342370471693e-15       2.329824724480e-13       0.000000000000e+00       9.830973803938e-11       1.064926564409e-11      -6.153108234472e-15 
   39       1.590159233177e-10       6.926569165011e-15       2.266532176903e-13       0.000000000000e+00       9.332933784377e-11       1.014696389846e-11      -6.652290679373e-15 
   40       1.615362821801e-10       7.545612522739e-15       2.191678776163e-13       0.000000000000e+00       8.870003231749e-11       9.681255572496e-12      -7.801672121069e-15 
   41       1.640910545152e-10       8.199233905836e-15       2.103933222235e-13       0.000000000000e+00       8.436134817036e-11       9.245981152082e-12      -9.190493324856e-15 
   42       1.666781586724e-10       8.887937637450e-15       2.001887434526e-13       0.000000000000e+00       8.030091596303e-11       8.839186805394e-12      -1.055726061169e-14 
   43       1.692914499676e-10       9.612422814125e-15       1.883965543291e-13       0.000000000000e+00       7.650824993540e-11       8.458769752136e-12      -1.165067698972e-14 
   44       1.719197635720e-10       1.037336098227e-14       1.748380990213e-13       0.000000000000e+00       7.295614815810e-11       8.100711718925e-12      -1.217461665855e-14 
   45       1.745516151525e-10       1.117136140031e-14       1.593568978964e-13       0.000000000000e+00       6.961048944749e-11       7.760426672291e-12      -1.188085545437e-14 
   46       1.771919786785e-10       1.200685720101e-14       1.419667811690e-13       0.000000000000e+00       6.646625718124e-11       7.437634167733e-12      -1.088611810172e-14 
   47       1.798498026114e-10       1.288018320380e-14       1.227458892787e-13       0.000000000000e+00       6.352001828126e-11       7.132690527311e-12      -9.445631053200e-15 
   48       1.825331944509e-10       1.379160350291e-14       1.017972719309e-13       0.000000000000e+00       6.075905488003e-11       6.845158595451e-12      -7.869104540210e-15 
   49       1.852492914995e-10       1.474130836295e-14       7.925018632056e-14       0.000000000000e+00       5.816067262686e-11       6.573745514743e-12      -6.523754697165e-15 
   50       1.880032378328e-10       1.572946533407e-14       5.522480605026e-14       0.000000000000e+00       5.569908084067e-11       6.316792754802e-12      -5.743079528507e-15 
   51       1.907950876689e-10       1.675639615637e-14       2.971204285850e-14       0.000000000000e+00       5.336983934688e-11       6.074047368190e-12      -5.516983790997e-15 
   52       1.936218380614e-10       1.782244250805e-14       2.663347917463e-15       0.000000000000e+00       5.117085182301e-11       5.845263963560e-12      -5.722765940533e-15 
   53       1.964780819974e-10       1.892791544290e-14      -2.597596353899e-14       0.000000000000e+00       4.909504651201e-11       5.629659097607e-12      -6.210633363374e-15 
   54       1.993558371002e-10       2.007309483747e-14      -5.626713584123e-14       0.000000000000e+00       4.713004085077e-11       5.425875039258e-12      -6.802289387073e-15 
   55       2.022473418846e-10       2.125815257428e-14      -8.826862302830e-14       0.000000000000e+00       4.526194374376e-11       5.232367125829e-12      -7.328823685385e-15 
   56       2.051546504033e-10       2.248290101148e-14      -1.220043488350e-13       0.000000000000e+00       4.348863680607e-11       5.048761529878e-12      -7.758643185729e-15 
   57       2.080821210772e-10       2.374698105921e-14      -1.574883038182e-13       0.000000000000e+00       4.180920503660e-11       4.874771320913e-12      -8.098846984248e-15 
   58       2.110336035076e-10       2.504992952137e-14      -1.947336699197e-13       0.000000000000e+00       4.021991786746e-11       4.709783122691e-12      -8.358823127431e-15 
   59       2.140123827982e-10       2.639117557135e-14      -2.337528633071e-13       0.000000000000e+00       3.871405499931e-11       4.552837380988e-12      -8.550366924114e-15 
   60       2.170211238776e-10       2.777003722785e-14      -2.745575772150e-13       0.000000000000e+00       3.728173223675e-11       4.402608631364e-12      -8.687799257471e-15 
   61       2.200618848362e-10       2.918584440154e-14      -3.171574543519e-13       0.000000000000e+00       3.591266042132e-11       4.257779852296e-12      -8.786431326825e-15 
   62       2.231362863937e-10       3.063834828239e-14      -3.615556589837e-13       0.000000000000e+00       3.460553989682e-11       4.118308355677e-12      -8.857288525748e-15 
   63       2.262452818428e-10       3.212739800811e-14      -4.077523824555e-13       0.000000000000e+00       3.336047527095e-11       3.984410316956e-12      -8.911406838862e-15 
   64       2.293890389624e-10       3.365282268402e-14      -4.557461252931e-13       0.000000000000e+00       3.217614889903e-11       3.856184678038e-12      -8.961446449988e-15 
   65       2.325668865306e-10       3.521443187477e-14      -5.055336965609e-13       0.000000000000e+00       3.104973978435e-11       3.733605919080e-12      -9.021757587608e-15 
   66       2.357772608362e-10       3.681201609618e-14      -5.571102132200e-13       0.000000000000e+00       2.997684247852e-11       3.616516830288e-12      -9.108446370338e-15 
   67       2.390176521911e-10       3.844534730698e-14      -6.104690994862e-13       0.000000000000e+00       2.895138598180e-11       3.504621283721e-12      -9.239440652385e-15 
   68       2.422855807853e-10       4.011403718683e-14      -6.655979138718e-13       0.000000000000e+00       2.796726241698e-11       3.397580863095e-12      -9.429183498043e-15 
   69       2.455818734245e-10       4.181707752469e-14      -7.224648498730e-13       0.000000000000e+00       2.702377754995e-11       3.295343646815e-12      -9.671317826953e-15 
   70       2.489079577087e-10       4.355320715660e-14      -7.810294862454e-13       0.000000000000e+00       2.612116407153e-11       3.197869366087e-12      -9.952595389372e-15 
   71       2.522648647603e-10       4.532104285038e-14      -8.412466118749e-13       0.000000000000e+00       2.525893284106e-11       3.105026951397e-12      -1.025786843004e-14 
   72       2.556532020631e-10       4.711907616024e-14      -9.030661184266e-13       0.000000000000e+00       2.443583551492e-11       3.016589960528e-12      -1.057001813286e-14 
   73       2.590731262993e-10       4.894567028141e-14      -9.664328929942e-13       0.000000000000e+00       2.364982717513e-11       2.932232006570e-12      -1.086988306554e-14 
   74       2.625243161887e-10       5.079905690468e-14      -1.031286710749e-12       0.000000000000e+00       2.289802895790e-11       2.851522185937e-12      -1.113618762433e-14 
   75       2.660059453257e-10       5.267733307104e-14      -1.097562127590e-12       0.000000000000e+00       2.217669068218e-11       2.773920506377e-12      -1.134547047862e-14 
   76       2.695172058617e-10       5.457864681345e-14      -1.165199407295e-12       0.000000000000e+00       2.148212541081e-11       2.698910685210e-12      -1.147734115084e-14 
   77       2.730590498409e-10       5.650180011758e-14      -1.234179840734e-12       0.000000000000e+00       2.081379249419e-11       2.626436608067e-12      -1.153151457928e-14 
   78       2.766327175331e-10       5.844575071017e-14      -1.304496702172e-12       0.000000000000e+00       2.017171145019e-11       2.556537523909e-12      -1.151376732042e-14 
   79       2.802391991500e-10       6.040943374028e-14      -1.376144903140e-12       0.000000000000e+00       1.955552274817e-11       2.489216008869e-12      -1.143092208143e-14 
   80       2.838792189795e-10       6.239176250510e-14      -1.449121111351e-12       0.000000000000e+00       1.896447036789e-11       2.424436211153e-12      -1.129088542256e-14 
   81       2.875532195188e-10       6.439162917581e-14      -1.523423869624e-12       0.000000000000e+00       1.839738435829e-11       2.362122095944e-12      -1.110268545956e-14 
   82       2.912613456080e-10       6.640790552340e-14      -1.599053714806e-12       0.000000000000e+00       1.785266339633e-11       2.302155690299e-12      -1.087650956607e-14 
   83       2.950034285638e-10       6.843944364451e-14      -1.676013296687e-12       0.000000000000e+00       1.732825734583e-11       2.244375328052e-12      -1.062374207600e-14 
   84       2.987791945174e-10       7.048499336477e-14      -1.754295464773e-12       0.000000000000e+00       1.682216758099e-11       2.188616507782e-12      -1.035526341535e-14 
   85       3.025889638659e-10       7.254293712617e-14      -1.833844998910e-12       0.000000000000e+00       1.633408146107e-11       2.134846093699e-12      -1.007594093642e-14 
   86       3.064330392243e-10       7.461151227609e-14      -1.914590722945e-12       0.000000000000e+00       1.586397809934e-11       2.083047247971e-12      -9.789289659646e-15 
   87       3.103114796099e-10       7.668888981746e-14      -1.996456890728e-12       0.000000000000e+00       1.541162607944e-11       2.033177772134e-12      -9.499137998918e-15 
   88       3.142240883452e-10       7.877317373431e-14      -2.079363102811e-12       0.000000000000e+00       1.497657471620e-11       1.985169068177e-12      -9.209636244254e-15 
   89       3.181704009586e-10       8.086240031714e-14      -2.163224223153e-12       0.000000000000e+00       1.455814531636e-11       1.938925099628e-12      -8.925265044551e-15 
   90       3.221496730867e-10       8.295453748841e-14      -2.247950295813e-12       0.000000000000e+00       1.415542243931e-11       1.894321352641e-12      -8.650843890307e-15 
   91       3.261608683757e-10       8.504748412800e-14      -2.333446461651e-12       0.000000000000e+00       1.376724515791e-11       1.851203797084e-12      -8.391539596341e-15 
   92       3.302026463833e-10       8.713906939867e-14      -2.419612875032e-12       0.000000000000e+00       1.339219831919e-11       1.809387847626e-12      -8.152874784529e-15 
   93       3.342737491785e-10       8.922714408235e-14      -2.506353977097e-12       0.000000000000e+00       1.302894941595e-11       1.768702985976e-12      -7.939534205121e-15 
   94       3.383742539320e-10       9.130987176804e-14      -2.593608091940e-12       0.000000000000e+00       1.267733613989e-11       1.729136561105e-12      -7.751559911804e-15 
   95       3.425044872232e-10       9.338548041523e-14      -2.681322148395e-12       0.000000000000e+00       1.233742699965e-11       1.690709796376e-12      -7.587596861719e-15 
   96       3.466646365920e-10       9.545217482579e-14      -2.769442764610e-12       0.000000000000e+00       1.200918634268e-11       1.653433648845e-12      -7.446036176943e-15 
   97       3.508547439125e-10       9.750813723247e-14      -2.857916293180e-12       0.000000000000e+00       1.169247036011e-11       1.617308397126e-12      -7.325007125338e-15 
   98       3.550746987681e-10       9.955152788735e-14      -2.946688866288e-12       0.000000000000e+00       1.138702309167e-11       1.582323229267e-12      -7.222369101412e-15 
   99       3.593242318259e-10       1.015804856503e-13      -3.035706440832e-12       0.000000000000e+00       1.109247243058e-11       1.548455830614e-12      -7.135703607166e-15 
  100       3.636029082112e-10       1.035931285775e-13      -3.124914843570e-12       0.000000000000e+00       1.080832612848e-11       1.515671971688e-12      -7.062306232953e-15 
  101       3.679101208823e-10       1.055875545099e-13      -3.214259816250e-12       0.000000000000e+00       1.053396780028e-11       1.483925096049e-12      -6.999178638329e-15 
  102       3.722450840050e-10       1.075618416616e-13      -3.303687060747e-12       0.000000000000e+00       1.026865292910e-11       1.453155908169e-12      -6.943020532907e-15 
  103       3.766068263267e-10       1.095140492085e-13      -3.393142284200e-12       0.000000000000e+00       1.001150487114e-11       1.423291961303e-12      -6.890221657210e-15 
  104       3.809943899152e-10       1.114422440670e-13      -3.482568476570e-12       0.000000000000e+00       9.761714138708e-12       1.394264749187e-12      -6.837551487651e-15 
  105       3.854074712179e-10       1.133445840826e-13      -3.571897227259e-12       0.000000000000e+00       9.519175512957e-12       1.366064498304e-12      -6.784351731924e-15 
  106       3.898458546511e-10       1.152192472285e-13      -3.661056314182e-12       0.000000000000e+00       9.283929948424e-12       1.338692043382e-12      -6.730626436575e-15 
  107       3.943092106544e-10       1.170644072841e-13      -3.749972381135e-12       0.000000000000e+00       9.055967240359e-12       1.312141767395e-12      -6.676370363216e-15 
